R-PEAK AMPLITUDE PEAK INDEX, TIME, AMPLITUDE, COMPUTED RESPIRATORY RATE (BREATHS PER MINUTE), BENCHMARK RESPIRATORY RATE (BREATHS PER MINUTE)
465,4.65,344, , 
1629,16.29,328, , 
2182,21.82,343, , 
2452,24.52,329, , 
3728,37.28,342, , 
4894,48.94,333, , 
5438,54.38,349, , 
7605,76.05,334, , 
8182,81.82,348, , 
8687,86.87,345, , 
9395,93.95,329, , 
 , , , 6.875, 6.25
10063,100.63,347, , 
11266,112.66,347, , 
12469,124.69,347, , 
13286,132.86,332, , 
13770,137.7,344, , 
14923,149.23,350, , 
16167,161.67,325, , 
18029,180.29,358, , 
 , , , 5.0, 4.375
22195,221.95,339, , 
23168,231.68,311, , 
24019,240.19,327, , 
24419,244.19,327, , 
25253,252.53,294, , 
25799,257.99,316, , 
26822,268.22,320, , 
27754,277.54,338, , 
28330,283.3,340, , 
28735,287.35,329, , 
 , , , 6.25, 7.5
30749,307.49,342, , 
31341,313.41,337, , 
32091,320.91,329, , 
32319,323.19,342, , 
32815,328.15,334, , 
33408,334.08,339, , 
35067,350.67,342, , 
35386,353.86,359, , 
35875,358.75,352, , 
37185,371.85,345, , 
38325,383.25,343, , 
38820,388.2,336, , 
39279,392.79,314, , 
 , , , 8.125, 6.25
39677,396.77,359, , 
40827,408.27,335, , 
41831,418.31,354, , 
44393,443.93,325, , 
45715,457.15,325, , 
46458,464.58,376, , 
46609,466.09,296, , 
 , , , 4.375, 7.5
49382,493.82,299, , 
49752,497.52,326, , 
50113,501.13,314, , 
50597,505.97,357, , 
53107,531.07,328, , 
53859,538.59,325, , 
54572,545.72,318, , 
55439,554.39,345, , 
56916,569.16,322, , 
57789,577.89,334, , 
 , , , 6.25, 7.5
58118,581.18,332, , 
59118,591.18,354, , 
59453,594.53,334, , 
59922,599.22,334, , 
60442,604.42,306, , 
60785,607.85,349, , 
61239,612.39,329, , 
62213,622.13,332, , 
63221,632.21,313, , 
64266,642.66,345, , 
65059,650.59,329, , 
65411,654.11,338, , 
65905,659.05,338, , 
66420,664.2,343, , 
67631,676.31,301, , 
68165,681.65,330, , 
 , , , 10.0, 5.625
68803,688.03,334, , 
70267,702.67,317, , 
71100,711.0,321, , 
71455,714.55,364, , 
71728,717.28,346, , 
71974,719.74,345, , 
72624,726.24,319, , 
74009,740.09,342, , 
75032,750.32,324, , 
75744,757.44,375, , 
76326,763.26,346, , 
 , , , 6.875, 6.875
77290,772.9,310, , 
78453,784.53,351, , 
78828,788.28,366, , 
79295,792.95,358, , 
79756,797.56,337, , 
80993,809.93,323, , 
81520,815.2,375, , 
81888,818.88,367, , 
82137,821.37,349, , 
82517,825.17,348, , 
84125,841.25,380, , 
84484,844.84,385, , 
86016,860.16,309, , 
86298,862.98,345, , 
 , , , 8.75, 6.25
86969,869.69,357, , 
88831,888.31,325, , 
89725,897.25,336, , 
90304,903.04,362, , 
90668,906.68,395, , 
91031,910.31,350, , 
91355,913.55,360, , 
92790,927.9,357, , 
94727,947.27,364, , 
95389,953.89,345, , 
96050,960.5,373, , 
 , , , 6.875, 6.25
96397,963.97,384, , 
96738,967.38,337, , 
98009,980.09,330, , 
98371,983.71,347, , 
99083,990.83,390, , 
100254,1002.54,336, , 
101621,1016.21,344, , 
102772,1027.72,369, , 
103454,1034.54,365, , 
 , , , 5.625, 5.0
105768,1057.68,350, , 
106229,1062.29,361, , 
107475,1074.75,351, , 
107842,1078.42,356, , 
108211,1082.11,378, , 
109691,1096.91,339, , 
111520,1115.2,337, , 
112680,1126.8,385, , 
114774,1147.74,341, , 
 , , , 5.625, 5.0
116148,1161.48,353, , 
116491,1164.91,368, , 
118300,1183.0,309, , 
119307,1193.07,380, , 
119776,1197.76,383, , 
120104,1201.04,379, , 
122378,1223.78,370, , 
122753,1227.53,358, , 
123500,1235.0,328, , 
123771,1237.71,347, , 
124155,1241.55,357, , 
124537,1245.37,361, , 
124795,1247.95,393, , 
 , , , 8.125, 5.0
125894,1258.94,348, , 
127327,1273.27,325, , 
127817,1278.17,311, , 
128090,1280.9,364, , 
128491,1284.91,371, , 
128755,1287.55,378, , 
129454,1294.54,339, , 
131078,1310.78,320, , 
131720,1317.2,349, , 
132184,1321.84,392, , 
132718,1327.18,392, , 
134518,1345.18,357, , 
 , , , 7.5, 5.0
134897,1348.97,361, , 
135655,1356.55,352, , 
137778,1377.78,339, , 
138480,1384.8,356, , 
139384,1393.84,368, , 
140065,1400.65,353, , 
140365,1403.65,344, , 
140937,1409.37,327, , 
141700,1417.0,341, , 
142109,1421.09,343, , 
142405,1424.05,324, , 
142697,1426.97,393, , 
143070,1430.7,372, , 
 , , , 8.125, 5.0
146347,1463.47,321, , 
147060,1470.6,367, , 
147457,1474.57,368, , 
147807,1478.07,344, , 
149825,1498.25,308, , 
150101,1501.01,337, , 
151053,1510.53,353, , 
153433,1534.33,335, , 
 , , , 5.0, 5.0
153836,1538.36,332, , 
154229,1542.29,337, , 
154956,1549.56,338, , 
155244,1552.44,344, , 
155989,1559.89,324, , 
156665,1566.65,381, , 
159278,1592.78,317, , 
159562,1595.62,363, , 
160611,1606.11,383, , 
163282,1632.82,333, , 
 , , , 6.25, 4.375
163661,1636.61,322, , 
163952,1639.52,379, , 
164815,1648.15,379, , 
166549,1665.49,331, , 
166931,1669.31,346, , 
167808,1678.08,351, , 
168525,1685.25,357, , 
168810,1688.1,352, , 
169068,1690.68,390, , 
169400,1694.0,341, , 
170681,1706.81,320, , 
171558,1715.58,348, , 
171934,1719.34,347, , 
 , , , 8.125, 4.375
173291,1732.91,405, , 
175313,1753.13,343, , 
176361,1763.61,323, , 
177559,1775.59,375, , 
178512,1785.12,354, , 
179198,1791.98,325, , 
180268,1802.68,347, , 
181371,1813.71,378, , 
181989,1819.89,382, , 
 , , , 5.625, 4.375
183973,1839.73,319, , 
184350,1843.5,349, , 
185293,1852.93,393, , 
185573,1855.73,430, , 
186250,1862.5,354, , 
186590,1865.9,362, , 
189902,1899.02,408, , 
190383,1903.83,387, , 
190983,1909.83,357, , 
194277,1942.77,335, , 
 , , , 6.25, 3.75
194396,1943.96,370, , 
194688,1946.88,352, , 
195221,1952.21,425, , 
195640,1956.4,365, , 
196270,1962.7,349, , 
197524,1975.24,340, , 
198913,1989.13,416, , 
199613,1996.13,366, , 
200491,2004.91,337, , 
201686,2016.86,337, , 
 , , , 6.25, 5.0
202073,2020.73,346, , 
202759,2027.59,360, , 
203014,2030.14,408, , 
203343,2033.43,315, , 
205372,2053.72,334, , 
206124,2061.24,355, , 
206520,2065.2,357, , 
206838,2068.38,359, , 
207251,2072.51,345, , 
208717,2087.17,360, , 
209275,2092.75,337, , 
210863,2108.63,326, , 
 , , , 7.5, 5.0
211888,2118.88,370, , 
212144,2121.44,387, , 
213107,2131.07,337, , 
214829,2148.29,330, , 
217666,2176.66,353, , 
218273,2182.73,346, , 
218842,2188.42,369, , 
 , , , 4.375, 4.375
221466,2214.66,334, , 
222156,2221.56,360, , 
222863,2228.63,362, , 
224339,2243.39,380, , 
224866,2248.66,331, , 
227667,2276.67,380, , 
228547,2285.47,403, , 
232309,2323.09,336, , 
 , , , 5.0, 3.75
232618,2326.18,385, , 
233016,2330.16,484, , 
233166,2331.66,388, , 
233519,2335.19,346, , 
237253,2372.53,361, , 
238086,2380.86,359, , 
 , , , 3.75, 6.875
240562,2405.62,311, , 
240885,2408.85,363, , 
241191,2411.91,388, , 
241451,2414.51,372, , 
243006,2430.06,340, , 
245509,2455.09,385, , 
245877,2458.77,388, , 
249069,2490.69,358, , 
 , , , 5.0, 5.0
250563,2505.63,397, , 
250890,2508.9,370, , 
251871,2518.71,350, , 
252671,2526.71,329, , 
254050,2540.5,332, , 
254416,2544.16,370, , 
254759,2547.59,377, , 
255023,2550.23,365, , 
257559,2575.59,325, , 
257846,2578.46,343, , 
258240,2582.4,344, , 
 , , , 6.875, 5.0
259418,2594.18,349, , 
261017,2610.17,326, , 
261698,2616.98,336, , 
261997,2619.97,331, , 
262313,2623.13,346, , 
262727,2627.27,343, , 
263700,2637.0,372, , 
265212,2652.12,331, , 
265820,2658.2,322, , 
266468,2664.68,324, , 
267466,2674.66,372, , 
267690,2676.9,364, , 
 , , , 7.5, 5.0
270433,2704.33,333, , 
270722,2707.22,347, , 
271468,2714.68,368, , 
272094,2720.94,391, , 
272592,2725.92,377, , 
273794,2737.94,338, , 
275535,2755.35,342, , 
275923,2759.23,316, , 
276245,2762.45,350, , 
277059,2770.59,352, , 
278253,2782.53,316, , 
 , , , 6.875, 3.75
279982,2799.82,333, , 
280276,2802.76,335, , 
280901,2809.01,392, , 
281366,2813.66,409, , 
282418,2824.18,341, , 
285572,2855.72,368, , 
285846,2858.46,387, , 
286122,2861.22,389, , 
286722,2867.22,364, , 
287248,2872.48,347, , 
 , , , 6.25, 4.375
289071,2890.71,333, , 
289388,2893.88,379, , 
289694,2896.94,378, , 
290013,2900.13,354, , 
292920,2929.2,319, , 
293487,2934.87,319, , 
294246,2942.46,354, , 
294526,2945.26,382, , 
295282,2952.82,351, , 
295574,2955.74,358, , 
296190,2961.9,355, , 
 , , , 6.875, 6.875
298124,2981.24,352, , 
298657,2986.57,402, , 
299231,2992.31,362, , 
301436,3014.36,357, , 
302909,3029.09,364, , 
303238,3032.38,370, , 
305733,3057.33,398, , 
 , , , 4.375, 5.625
310184,3101.84,392, , 
310806,3108.06,368, , 
311539,3115.39,373, , 
314912,3149.12,373, , 
 , , , 2.5, 3.75
317021,3170.21,337, , 
318347,3183.47,359, , 
318654,3186.54,365, , 
319303,3193.03,374, , 
321067,3210.67,344, , 
321747,3217.47,352, , 
322876,3228.76,369, , 
323585,3235.85,397, , 
324425,3244.25,394, , 
325544,3255.44,353, , 
325847,3258.47,366, , 
326553,3265.53,371, , 
 , , , 7.5, 5.0
327134,3271.34,386, , 
327993,3279.93,353, , 
328595,3285.95,349, , 
328888,3288.88,351, , 
329374,3293.74,350, , 
330380,3303.8,338, , 
331201,3312.01,420, , 
331643,3316.43,334, , 
331854,3318.54,296, , 
333548,3335.48,342, , 
335632,3356.32,399, , 
 , , , 6.875, 5.625
339333,3393.33,348, , 
339832,3398.32,382, , 
340070,3400.7,380, , 
340630,3406.3,363, , 
343142,3431.42,334, , 
343790,3437.9,369, , 
344329,3443.29,384, , 
344925,3449.25,376, , 
345322,3453.22,353, , 
 , , , 5.625, 3.75
348865,3488.65,385, , 
349260,3492.6,358, , 
349894,3498.94,348, , 
352048,3520.48,326, , 
352303,3523.03,412, , 
352679,3526.79,365, , 
353771,3537.71,339, , 
354066,3540.66,365, , 
354680,3546.8,358, , 
355368,3553.68,397, , 
 , , , 6.25, 5.0
356068,3560.68,390, , 
356405,3564.05,371, , 
357850,3578.5,348, , 
359349,3593.49,378, , 
359824,3598.24,412, , 
360141,3601.41,405, , 
364540,3645.4,344, , 
364911,3649.11,371, , 
 , , , 5.0, 5.625
366248,3662.48,345, , 
367971,3679.71,353, , 
368286,3682.86,371, , 
368636,3686.36,385, , 
369113,3691.13,394, , 
370330,3703.3,365, , 
371691,3716.91,354, , 
372693,3726.93,352, , 
373813,3738.13,342, , 
374419,3744.19,400, , 
 , , , 6.25, 4.375
375168,3751.68,365, , 
376669,3766.69,353, , 
376976,3769.76,340, , 
378149,3781.49,370, , 
378406,3784.06,411, , 
379020,3790.2,373, , 
379829,3798.29,336, , 
380243,3802.43,350, , 
381255,3812.55,317, , 
381581,3815.81,365, , 
382046,3820.46,374, , 
383510,3835.1,350, , 
383809,3838.09,324, , 
 , , , 8.125, 3.75
384899,3848.99,337, , 
385960,3859.6,355, , 
386581,3865.81,392, , 
387153,3871.53,348, , 
388853,3888.53,347, , 
390892,3908.92,385, , 
391141,3911.41,396, , 
391634,3916.34,382, , 
393573,3935.73,362, , 
 , , , 5.625, 3.125
394200,3942.0,349, , 
395100,3951.0,360, , 
397055,3970.55,400, , 
397627,3976.27,366, , 
400153,4001.53,383, , 
402452,4024.52,327, , 
402979,4029.79,438, , 
 , , , 4.375, 3.125
403534,4035.34,354, , 
407384,4073.84,364, , 
408160,4081.6,367, , 
408916,4089.16,334, , 
410043,4100.43,321, , 
 , , , 3.125, 5.0
413797,4137.97,357, , 
414087,4140.87,381, , 
414758,4147.58,350, , 
415073,4150.73,311, , 
415361,4153.61,331, , 
415797,4157.97,358, , 
416109,4161.09,341, , 
416619,4166.19,336, , 
417597,4175.97,316, , 
418858,4188.58,343, , 
419629,4196.29,348, , 
419910,4199.1,407, , 
421054,4210.54,306, , 
421319,4213.19,348, , 
422083,4220.83,316, , 
 , , , 9.375, 3.125
422700,4227.0,319, , 
423968,4239.68,338, , 
424518,4245.18,337, , 
426081,4260.81,327, , 
426613,4266.13,343, , 
427032,4270.32,400, , 
428533,4285.33,364, , 
428951,4289.51,350, , 
429595,4295.95,329, , 
430416,4304.16,346, , 
 , , , 6.25, 1.875
432780,4327.8,328, , 
434477,4344.77,298, , 
434711,4347.11,343, , 
436731,4367.31,327, , 
438642,4386.42,341, , 
439159,4391.59,350, , 
439813,4398.13,383, , 
440248,4402.48,364, , 
440895,4408.95,342, , 
 , , , 5.625, 4.375
443336,4433.36,342, , 
445032,4450.32,341, , 
445920,4459.2,339, , 
446551,4465.51,353, , 
446828,4468.28,407, , 
451282,4512.82,303, , 
 , , , 3.75, 1.25
453909,4539.09,341, , 
454605,4546.05,338, , 
454936,4549.36,372, , 
455335,4553.35,349, , 
456549,4565.49,342, , 
456968,4569.68,332, , 
457608,4576.08,334, , 
458115,4581.15,342, , 
459688,4596.88,337, , 
460830,4608.3,371, , 
 , , , 6.25, 3.75
461067,4610.67,385, , 
463659,4636.59,331, , 
464711,4647.11,338, , 
466548,4665.48,336, , 
468102,4681.02,373, , 
469815,4698.15,320, , 
470144,4701.44,345, , 
 , , , 4.375, 5.625
470594,4705.94,344, , 
471135,4711.35,325, , 
471383,4713.83,348, , 
471882,4718.82,340, , 
473507,4735.07,326, , 
474748,4747.48,315, , 
475541,4755.41,314, , 
476078,4760.78,389, , 
476551,4765.51,362, , 
476830,4768.3,352, , 
477931,4779.31,332, , 
479689,4796.89,326, , 
 , , , 7.5, 4.375
481325,4813.25,333, , 
482307,4823.07,327, , 
483137,4831.37,323, , 
483487,4834.87,354, , 
484070,4840.7,313, , 
485672,4856.72,312, , 
489348,4893.48,352, , 
 , , , 4.375, 3.125
489965,4899.65,374, , 
492045,4920.45,314, , 
492337,4923.37,312, , 
493663,4936.63,337, , 
494428,4944.28,346, , 
498885,4988.85,345, , 
 , , , 3.75, 4.375
500002,5000.02,354, , 
500699,5006.99,376, , 
501226,5012.26,380, , 
501638,5016.38,399, , 
503754,5037.54,320, , 
505380,5053.8,323, , 
505824,5058.24,343, , 
507775,5077.75,371, , 
508145,5081.45,383, , 
 , , , 5.625, 3.125
510512,5105.12,318, , 
513725,5137.25,330, , 
516291,5162.91,366, , 
517074,5170.74,365, , 
518400,5184.0,328, , 
 , , , 3.125, 2.5
518876,5188.76,367, , 
520375,5203.75,342, , 
522026,5220.26,340, , 
522407,5224.07,403, , 
522939,5229.39,336, , 
523646,5236.46,333, , 
526085,5260.85,351, , 
526845,5268.45,398, , 
527265,5272.65,419, , 
528044,5280.44,350, , 
 , , , 6.25, 3.125
529484,5294.84,316, , 
531009,5310.09,356, , 
532704,5327.04,413, , 
533206,5332.06,373, , 
 , , , 2.5, 1.875
539654,5396.54,359, , 
540109,5401.09,377, , 
543331,5433.31,337, , 
546183,5461.83,344, , 
547200,5472.0,410, , 
 , , , 3.125, 2.5
549692,5496.92,420, , 
551844,5518.44,351, , 
552108,5521.08,332, , 
553008,5530.08,342, , 
553716,5537.16,343, , 
555161,5551.61,330, , 
555424,5554.24,347, , 
556146,5561.46,370, , 
 , , , 5.0, 5.0
557222,5572.22,313, , 
558143,5581.43,340, , 
558610,5586.1,328, , 
560456,5604.56,365, , 
560762,5607.62,396, , 
561403,5614.03,354, , 
562123,5621.23,322, , 
562904,5629.04,337, , 
563189,5631.89,349, , 
566365,5663.65,374, , 
 , , , 6.25, 2.5
566691,5666.91,375, , 
569442,5694.42,325, , 
570846,5708.46,377, , 
571149,5711.49,382, , 
571724,5717.24,339, , 
572442,5724.42,362, , 
573499,5734.99,323, , 
574705,5747.05,386, , 
575308,5753.08,343, , 
 , , , 5.625, 5.0
576280,5762.8,364, , 
577122,5771.22,344, , 
577419,5774.19,354, , 
578114,5781.14,306, , 
578396,5783.96,356, , 
579050,5790.5,307, , 
579877,5798.77,398, , 
580227,5802.27,387, , 
582544,5825.44,315, , 
583512,5835.12,340, , 
583864,5838.64,387, , 
584174,5841.74,410, , 
 , , , 7.5, 3.125
587725,5877.25,367, , 
588012,5880.12,337, , 
588360,5883.6,409, , 
588674,5886.74,375, , 
589067,5890.67,376, , 
590647,5906.47,357, , 
591302,5913.02,315, , 
592219,5922.19,354, , 
592762,5927.62,359, , 
593484,5934.84,315, , 
594122,5941.22,364, , 
 , , , 6.875, 3.125
597305,5973.05,375, , 
598703,5987.03,360, , 
598973,5989.73,339, , 
600472,6004.72,350, , 
601149,6011.49,405, , 
601759,6017.59,344, , 
602200,6022.0,308, , 
 , , , 4.375, 3.75
605146,6051.46,400, , 
605376,6053.76,355, , 
606137,6061.37,369, , 
607500,6075.0,362, , 
608494,6084.94,335, , 
609921,6099.21,320, , 
612150,6121.5,354, , 
612561,6125.61,348, , 
614378,6143.78,391, , 
 , , , 5.625, 3.75
614783,6147.83,347, , 
616030,6160.3,341, , 
616674,6166.74,331, , 
617926,6179.26,355, , 
618803,6188.03,371, , 
619197,6191.97,355, , 
619826,6198.26,357, , 
620692,6206.92,360, , 
621080,6210.8,335, , 
621448,6214.48,323, , 
622027,6220.27,328, , 
623075,6230.75,365, , 
623618,6236.18,306, , 
 , , , 8.125, 2.5
626136,6261.36,375, , 
627267,6272.67,358, , 
627522,6275.22,372, , 
630315,6303.15,344, , 
630710,6307.1,335, , 
631013,6310.13,352, , 
631344,6313.44,380, , 
631620,6316.2,436, , 
632414,6324.14,356, , 
633584,6335.84,334, , 
 , , , 6.25, 3.125
633859,6338.59,367, , 
634231,6342.31,366, , 
635100,6351.0,343, , 
636564,6365.64,358, , 
637174,6371.74,326, , 
638703,6387.03,320, , 
639550,6395.5,373, , 
639854,6398.54,360, , 
640439,6404.39,408, , 
641326,6413.26,358, , 
642887,6428.87,359, , 
 , , , 6.875, 3.75
644100,6441.0,368, , 
645345,6453.45,352, , 
645929,6459.29,352, , 
646873,6468.73,363, , 
647171,6471.71,365, , 
647812,6478.12,387, , 
648923,6489.23,355, , 
649804,6498.04,348, , 
651023,6510.23,348, , 
651423,6514.23,335, , 
651722,6517.22,380, , 
652488,6524.88,391, , 
 , , , 7.5, 3.75
653197,6531.97,339, , 
654102,6541.02,308, , 
654389,6543.89,326, , 
656135,6561.35,328, , 
656429,6564.29,351, , 
656915,6569.15,376, , 
658649,6586.49,321, , 
659194,6591.94,342, , 
659862,6598.62,344, , 
660160,6601.6,349, , 
660488,6604.88,347, , 
660787,6607.87,318, , 
662358,6623.58,362, , 
 , , , 8.125, 2.5
663947,6639.47,361, , 
665174,6651.74,355, , 
665469,6654.69,379, , 
666789,6667.89,329, , 
668561,6685.61,343, , 
668859,6688.59,361, , 
669767,6697.67,362, , 
670011,6700.11,377, , 
670262,6702.62,385, , 
 , , , 5.625, 3.125
672979,6729.79,364, , 
673274,6732.74,348, , 
673855,6738.55,364, , 
674626,6746.26,352, , 
675069,6750.69,350, , 
675480,6754.8,331, , 
676071,6760.71,346, , 
677973,6779.73,365, , 
678248,6782.48,418, , 
679135,6791.35,380, , 
679827,6798.27,328, , 
680489,6804.89,324, , 
680904,6809.04,329, , 
 , , , 8.125, 4.375
682554,6825.54,363, , 
684364,6843.64,331, , 
684645,6846.45,361, , 
685882,6858.82,360, , 
686473,6864.73,347, , 
687036,6870.36,390, , 
687425,6874.25,336, , 
688429,6884.29,334, , 
689056,6890.56,338, , 
690964,6909.64,404, , 
 , , , 6.25, 5.0
691515,6915.15,370, , 
692081,6920.81,355, , 
693306,6933.06,349, , 
693901,6939.01,357, , 
694201,6942.01,365, , 
695055,6950.55,424, , 
695668,6956.68,364, , 
696431,6964.31,340, , 
696727,6967.27,335, , 
697119,6971.19,323, , 
697764,6977.64,337, , 
698434,6984.34,334, , 
698998,6989.98,370, , 
699816,6998.16,355, , 
700487,7004.87,374, , 
 , , , 9.375, 3.125
701208,7012.08,334, , 
702175,7021.75,354, , 
703561,7035.61,372, , 
704372,7043.72,345, , 
706143,7061.43,369, , 
707130,7071.3,352, , 
707588,7075.88,379, , 
707945,7079.45,353, , 
709724,7097.24,357, , 
710116,7101.16,347, , 
710497,7104.97,360, , 
 , , , 6.875, 4.375
711198,7111.98,343, , 
711515,7115.15,353, , 
712146,7121.46,359, , 
712409,7124.09,410, , 
712717,7127.17,389, , 
713259,7132.59,324, , 
713583,7135.83,326, , 
715222,7152.22,359, , 
716224,7162.24,359, , 
716530,7165.3,367, , 
716963,7169.63,358, , 
717190,7171.9,413, , 
718038,7180.38,370, , 
718935,7189.35,326, , 
 , , , 8.75, 4.375
720834,7208.34,352, , 
721160,7211.6,369, , 
721893,7218.93,355, , 
723040,7230.4,363, , 
723310,7233.1,345, , 
725064,7250.64,370, , 
728008,7280.08,345, , 
729209,7292.09,355, , 
729500,7295.0,357, , 
 , , , 5.625, 5.0
730477,7304.77,370, , 
730850,7308.5,316, , 
731090,7310.9,321, , 
733238,7332.38,371, , 
733537,7335.37,385, , 
733830,7338.3,336, , 
734084,7340.84,366, , 
736140,7361.4,340, , 
736490,7364.9,354, , 
739036,7390.36,346, , 
739329,7393.29,318, , 
 , , , 6.875, 5.0
741965,7419.65,372, , 
743645,7436.45,375, , 
744829,7448.29,322, , 
747023,7470.23,361, , 
747442,7474.42,372, , 
748241,7482.41,341, , 
748849,7488.49,336, , 
749420,7494.2,341, , 
 , , , 5.0, 3.125
749699,7496.99,347, , 
750002,7500.02,343, , 
750912,7509.12,372, , 
751193,7511.93,366, , 
753208,7532.08,345, , 
754419,7544.19,354, , 
755984,7559.84,392, , 
756346,7563.46,335, , 
 , , , 5.0, 3.75
759181,7591.81,363, , 
759760,7597.6,345, , 
760729,7607.29,269, , 
761422,7614.22,310, , 
761804,7618.04,304, , 
762155,7621.55,324, , 
762480,7624.8,321, , 
763629,7636.29,355, , 
766103,7661.03,313, , 
766555,7665.55,348, , 
 , , , 6.25, 5.625
768395,7683.95,358, , 
769069,7690.69,355, , 
770419,7704.19,393, , 
771941,7719.41,362, , 
772821,7728.21,353, , 
774815,7748.15,366, , 
775679,7756.79,394, , 
775904,7759.04,390, , 
776739,7767.39,356, , 
777311,7773.11,344, , 
 , , , 6.25, 3.125
778354,7783.54,329, , 
778836,7788.36,326, , 
779143,7791.43,341, , 
782623,7826.23,373, , 
783225,7832.25,351, , 
783531,7835.31,365, , 
783823,7838.23,402, , 
787116,7871.16,380, , 
 , , , 5.0, 5.625
787407,7874.07,319, , 
788207,7882.07,408, , 
788682,7886.82,365, , 
789319,7893.19,302, , 
790664,7906.64,337, , 
791230,7912.3,336, , 
792375,7923.75,365, , 
792599,7925.99,394, , 
794822,7948.22,338, , 
795665,7956.65,353, , 
796262,7962.62,337, , 
796509,7965.09,388, , 
 , , , 7.5, 6.25
798217,7982.17,332, , 
800120,8001.2,351, , 
800410,8004.1,395, , 
800672,8006.72,355, , 
801163,8011.63,359, , 
801390,8013.9,325, , 
801624,8016.24,354, , 
802453,8024.53,325, , 
803679,8036.79,355, , 
804300,8043.0,329, , 
805368,8053.68,371, , 
806079,8060.79,329, , 
807260,8072.6,329, , 
 , , , 8.125, 6.25
808216,8082.16,355, , 
808796,8087.96,366, , 
809261,8092.61,391, , 
809661,8096.61,352, , 
809972,8099.72,350, , 
810663,8106.63,348, , 
812886,8128.86,358, , 
813399,8133.99,369, , 
814617,8146.17,339, , 
815386,8153.86,337, , 
816367,8163.67,354, , 
 , , , 6.875, 3.125
816970,8169.7,347, , 
818094,8180.94,380, , 
818825,8188.25,345, , 
819164,8191.64,356, , 
821412,8214.12,349, , 
821715,8217.15,319, , 
821989,8219.89,417, , 
823522,8235.22,356, , 
824226,8242.26,365, , 
824996,8249.96,363, , 
 , , , 6.25, 3.125
826338,8263.38,355, , 
826602,8266.02,340, , 
826873,8268.73,338, , 
827428,8274.28,310, , 
827823,8278.23,328, , 
828690,8286.9,362, , 
829019,8290.19,351, , 
829843,8298.43,371, , 
830416,8304.16,368, , 
831422,8314.22,358, , 
834232,8342.32,340, , 
835073,8350.73,368, , 
 , , , 7.5, 3.75
837146,8371.46,366, , 
838975,8389.75,406, , 
839375,8393.75,364, , 
839888,8398.88,362, , 
840308,8403.08,358, , 
841748,8417.48,311, , 
842124,8421.24,324, , 
842722,8427.22,336, , 
843616,8436.16,348, , 
844120,8441.2,367, , 
 , , , 6.25, 5.625
845185,8451.85,336, , 
845464,8454.64,337, , 
846076,8460.76,338, , 
846378,8463.78,352, , 
846675,8466.75,333, , 
847591,8475.91,345, , 
848876,8488.76,384, , 
850874,8508.74,321, , 
851169,8511.69,343, , 
851744,8517.44,353, , 
853290,8532.9,356, , 
 , , , 6.875, 4.375
855033,8550.33,316, , 
855892,8558.92,331, , 
856731,8567.31,331, , 
857724,8577.24,362, , 
858007,8580.07,368, , 
859097,8590.97,302, , 
860236,8602.36,326, , 
860621,8606.21,325, , 
861189,8611.89,338, , 
861485,8614.85,360, , 
862790,8627.9,298, , 
 , , , 6.875, 3.75
865042,8650.42,359, , 
865659,8656.59,353, , 
866177,8661.77,394, , 
869347,8693.47,340, , 
870059,8700.59,367, , 
870365,8703.65,368, , 
871718,8717.18,342, , 
872010,8720.1,362, , 
873206,8732.06,320, , 
873508,8735.08,379, , 
 , , , 6.25, 3.125
875039,8750.39,337, , 
875958,8759.58,358, , 
876375,8763.75,355, , 
876973,8769.73,332, , 
879992,8799.92,318, , 
880250,8802.5,360, , 
881965,8819.65,345, , 
882898,8828.98,362, , 
883351,8833.51,387, , 
 , , , 5.625, 5.0
886050,8860.5,321, , 
886658,8866.58,345, , 
886960,8869.6,355, , 
888396,8883.96,348, , 
889015,8890.15,329, , 
889938,8899.38,345, , 
890801,8908.01,372, , 
891100,8911.0,402, , 
 , , , 5.0, 5.625
893045,8930.45,354, , 
893830,8938.3,488, , 
894513,8945.13,373, , 
899132,8991.32,328, , 
900861,9008.61,336, , 
901687,9016.87,370, , 
 , , , 3.75, 4.375
902657,9026.57,387, , 
905196,9051.96,355, , 
905501,9055.01,368, , 
905816,9058.16,367, , 
906784,9067.84,395, , 
907858,9078.58,350, , 
909888,9098.88,361, , 
910145,9101.45,398, , 
910379,9103.79,385, , 
 , , , 5.625, 5.0
913657,9136.57,331, , 
914252,9142.52,382, , 
915494,9154.94,371, , 
915907,9159.07,328, , 
917122,9171.22,340, , 
917427,9174.27,359, , 
918849,9188.49,357, , 
919076,9190.76,380, , 
919666,9196.66,324, , 
920954,9209.54,342, , 
921259,9212.59,331, , 
 , , , 6.875, 5.625
921831,9218.31,344, , 
922459,9224.59,331, , 
923059,9230.59,366, , 
923992,9239.92,377, , 
924496,9244.96,352, , 
925725,9257.25,366, , 
926039,9260.39,362, , 
926656,9266.56,339, , 
926964,9269.64,350, , 
927266,9272.66,350, , 
927575,9275.75,382, , 
928043,9280.43,373, , 
928524,9285.24,352, , 
928986,9289.86,344, , 
930443,9304.43,380, , 
931388,9313.88,326, , 
 , , , 10.0, 5.625
932495,9324.95,334, , 
935878,9358.78,373, , 
936189,9361.89,371, , 
936843,9368.43,352, , 
937174,9371.74,371, , 
937889,9378.89,375, , 
938264,9382.64,401, , 
939088,9390.88,361, , 
940406,9404.06,353, , 
 , , , 5.625, 5.0
941003,9410.03,320, , 
941310,9413.1,356, , 
941919,9419.19,352, , 
942927,9429.27,398, , 
943259,9432.59,389, , 
943561,9435.61,338, , 
945512,9455.12,326, , 
946581,9465.81,369, , 
948297,9482.97,350, , 
948888,9488.88,368, , 
950254,9502.54,358, , 
950476,9504.76,360, , 
 , , , 7.5, 5.0
950877,9508.77,311, , 
951846,9518.46,322, , 
952560,9525.6,344, , 
953849,9538.49,339, , 
954622,9546.22,389, , 
955131,9551.31,404, , 
956974,9569.74,322, , 
957654,9576.54,335, , 
958174,9581.74,318, , 
958579,9585.79,347, , 
959521,9595.21,335, , 
 , , , 6.875, 6.25
960745,9607.45,365, , 
961187,9611.87,344, , 
961674,9616.74,354, , 
962161,9621.61,366, , 
962628,9626.28,357, , 
963518,9635.18,382, , 
963820,9638.2,344, , 
965533,9655.33,378, , 
965825,9658.25,392, , 
967659,9676.59,341, , 
968448,9684.48,369, , 
968714,9687.14,368, , 
 , , , 7.5, 5.625
971463,9714.63,377, , 
972169,9721.69,374, , 
972481,9724.81,325, , 
972714,9727.14,343, , 
974256,9742.56,335, , 
977779,9777.79,344, , 
978797,9787.97,343, , 
979263,9792.63,388, , 
 , , , 5.0, 5.625
979796,9797.96,338, , 
980254,9802.54,317, , 
980667,9806.67,345, , 
981035,9810.35,308, , 
981421,9814.21,313, , 
981990,9819.9,336, , 
982353,9823.53,331, , 
982741,9827.41,340, , 
983055,9830.55,346, , 
983376,9833.76,352, , 
983901,9839.01,333, , 
986677,9866.77,324, , 
987629,9876.29,373, , 
988127,9881.27,353, , 
 , , , 8.75, 6.875
991243,9912.43,343, , 
991856,9918.56,365, , 
992194,9921.94,370, , 
992673,9926.73,388, , 
993065,9930.65,371, , 
993439,9934.39,294, , 
995496,9954.96,354, , 
996422,9964.22,363, , 
997545,9975.45,369, , 
997879,9978.79,370, , 
998296,9982.96,343, , 
 , , , 6.875, 4.375
1000287,10002.87,359, , 
1001708,10017.08,351, , 
1001944,10019.44,359, , 
1002524,10025.24,369, , 
1003651,10036.51,353, , 
1004247,10042.47,349, , 
1005425,10054.25,378, , 
1005964,10059.64,376, , 
1007634,10076.34,341, , 
 , , , 5.625, 3.75
1008234,10082.34,350, , 
1008884,10088.84,348, , 
1009402,10094.02,349, , 
1010517,10105.17,380, , 
1011568,10115.68,346, , 
1011983,10119.83,349, , 
1012894,10128.94,354, , 
1013188,10131.88,355, , 
1013488,10134.88,349, , 
1013764,10137.64,389, , 
1014005,10140.05,372, , 
1014831,10148.31,359, , 
1016234,10162.34,321, , 
1017055,10170.55,354, , 
 , , , 8.75, 3.75
1018138,10181.38,362, , 
1018653,10186.53,335, , 
1019370,10193.7,348, , 
1019791,10197.91,334, , 
1021350,10213.5,348, , 
1021913,10219.13,352, , 
1022772,10227.72,383, , 
1024908,10249.08,322, , 
1025636,10256.36,363, , 
1025952,10259.52,349, , 
1027087,10270.87,380, , 
 , , , 6.875, 4.375
1027419,10274.19,388, , 
1027724,10277.24,368, , 
1028440,10284.4,346, , 
1028691,10286.91,353, , 
1029503,10295.03,345, , 
1030139,10301.39,330, , 
1030436,10304.36,360, , 
1030740,10307.4,368, , 
1031056,10310.56,379, , 
1031836,10318.36,346, , 
1032083,10320.83,383, , 
1033238,10332.38,347, , 
1034491,10344.91,365, , 
 , , , 8.125, 4.375
1037130,10371.3,413, , 
1037794,10377.94,321, , 
1039467,10394.67,330, , 
1039971,10399.71,343, , 
1041202,10412.02,392, , 
1042015,10420.15,343, , 
1044471,10444.71,354, , 
1045120,10451.2,372, , 
1045422,10454.22,372, , 
1045889,10458.89,402, , 
 , , , 6.25, 4.375
1046657,10466.57,349, , 
1048074,10480.74,352, , 
1048766,10487.66,313, , 
1050094,10500.94,345, , 
1050681,10506.81,334, , 
1052552,10525.52,348, , 
1053815,10538.15,334, , 
1054311,10543.11,376, , 
1054645,10546.45,368, , 
1055413,10554.13,364, , 
 , , , 6.25, 2.5
1056977,10569.77,375, , 
1058833,10588.33,353, , 
1059495,10594.95,329, , 
1059795,10597.95,354, , 
1061475,10614.75,326, , 
1062122,10621.22,378, , 
1062448,10624.48,343, , 
1062779,10627.79,383, , 
 , , , 5.0, 5.625
1067406,10674.06,325, , 
1067979,10679.79,393, , 
1068568,10685.68,358, , 
1068824,10688.24,357, , 
1069426,10694.26,347, , 
1069949,10699.49,345, , 
1071310,10713.1,369, , 
1072148,10721.48,378, , 
1072714,10727.14,331, , 
1072974,10729.74,380, , 
 , , , 6.25, 3.125
1075780,10757.8,383, , 
1076059,10760.59,376, , 
1076335,10763.35,377, , 
1076622,10766.22,359, , 
1077519,10775.19,364, , 
1077824,10778.24,349, , 
1078117,10781.17,374, , 
1078416,10784.16,328, , 
1078725,10787.25,345, , 
1079284,10792.84,371, , 
1080015,10800.15,357, , 
1082159,10821.59,351, , 
1082486,10824.86,354, , 
1083810,10838.1,402, , 
 , , , 8.75, 2.5
1085565,10855.65,363, , 
1086201,10862.01,367, , 
1087854,10878.54,360, , 
1088888,10888.88,414, , 
1090525,10905.25,351, , 
1091633,10916.33,355, , 
1091941,10919.41,371, , 
1093035,10930.35,423, , 
 , , , 5.0, 2.5
1095471,10954.71,348, , 
1096922,10969.22,401, , 
1097810,10978.1,327, , 
1098956,10989.56,357, , 
1099926,10999.26,329, , 
1100505,11005.05,359, , 
1103357,11033.57,366, , 
 , , , 4.375, 3.75
1104350,11043.5,350, , 
1104971,11049.71,384, , 
1106712,11067.12,439, , 
1107359,11073.59,376, , 
1109239,11092.39,331, , 
1110239,11102.39,398, , 
1110934,11109.34,357, , 
1111374,11113.74,366, , 
1111612,11116.12,416, , 
 , , , 5.625, 5.0
1114401,11144.01,361, , 
1114973,11149.73,368, , 
1115571,11155.71,345, , 
1116045,11160.45,376, , 
1117961,11179.61,349, , 
1119617,11196.17,360, , 
1119927,11199.27,331, , 
1122594,11225.94,347, , 
1123199,11231.99,343, , 
 , , , 5.625, 5.0
1123725,11237.25,350, , 
1124418,11244.18,384, , 
1124988,11249.88,354, , 
1126750,11267.5,352, , 
1127046,11270.46,349, , 
1127349,11273.49,313, , 
1127684,11276.84,371, , 
1129424,11294.24,358, , 
1129711,11297.11,394, , 
1130429,11304.29,380, , 
 , , , 6.25, 5.625
1133961,11339.61,408, , 
1135989,11359.89,346, , 
1138144,11381.44,369, , 
1138464,11384.64,381, , 
1138956,11389.56,352, , 
1142769,11427.69,314, , 
 , , , 3.75, 3.125
1143467,11434.67,345, , 
1149582,11495.82,376, , 
1150293,11502.93,376, , 
1151943,11519.43,357, , 
 , , , 2.5, 4.375
1152579,11525.79,340, , 
1153136,11531.36,378, , 
1153385,11533.85,366, , 
1153920,11539.2,376, , 
1154247,11542.47,324, , 
1154566,11545.66,365, , 
1156519,11565.19,356, , 
1156858,11568.58,342, , 
1159028,11590.28,363, , 
1160349,11603.49,326, , 
 , , , 6.25, 6.25
1161882,11618.82,359, , 
1162195,11621.95,346, , 
1162859,11628.59,398, , 
1163236,11632.36,340, , 
1165509,11655.09,344, , 
1167376,11673.76,365, , 
1167956,11679.56,330, , 
1171489,11714.89,351, , 
 , , , 5.0, 6.25
1171762,11717.62,411, , 
1175311,11753.11,354, , 
1176663,11766.63,397, , 
1176906,11769.06,380, , 
1177227,11772.27,342, , 
1178049,11780.49,333, , 
1179906,11799.06,353, , 
1181075,11810.75,398, , 
 , , , 5.0, 5.625
1188042,11880.42,336, , 
1188345,11883.45,349, , 
1188992,11889.92,375, , 
1189902,11899.02,368, , 
1190259,11902.59,355, , 
 , , , 3.125, 5.625
1191252,11912.52,385, , 
1195086,11950.86,352, , 
1195911,11959.11,391, , 
1200035,12000.35,442, , 
 , , , 2.5, 4.375
1201329,12013.29,330, , 
1207318,12073.18,388, , 
1208294,12082.94,378, , 
1209150,12091.5,360, , 
 , , , 2.5, 3.75
1210465,12104.65,345, , 
1211613,12116.13,396, , 
1212209,12122.09,382, , 
1213849,12138.49,354, , 
1214560,12145.6,372, , 
1215197,12151.97,363, , 
1215483,12154.83,383, , 
1216728,12167.28,348, , 
1217057,12170.57,347, , 
1217522,12175.22,328, , 
1218374,12183.74,329, , 
 , , , 6.875, 3.75
1220028,12200.28,395, , 
1220282,12202.82,421, , 
1220670,12206.7,412, , 
1225730,12257.3,322, , 
 , , , 2.5, 3.75
1229477,12294.77,380, , 
1230203,12302.03,309, , 
1234282,12342.82,350, , 
1235510,12355.1,358, , 
1235801,12358.01,375, , 
1236672,12366.72,309, , 
 , , , 3.75, 3.75
1240226,12402.26,329, , 
1240585,12405.85,295, , 
1241078,12410.78,338, , 
1242690,12426.9,330, , 
1243826,12438.26,303, , 
1245181,12451.81,333, , 
1245478,12454.78,375, , 
1247444,12474.44,335, , 
 , , , 5.0, 2.5
1250312,12503.12,380, , 
1250721,12507.21,367, , 
1252860,12528.6,295, , 
1254045,12540.45,307, , 
1254420,12544.2,308, , 
1255196,12551.96,329, , 
 , , , 3.75, 2.5
1257999,12579.99,381, , 
1258418,12584.18,363, , 
1263137,12631.37,353, , 
1263804,12638.04,427, , 
1265311,12653.11,348, , 
 , , , 3.125, 3.75
1269329,12693.29,390, , 
1269705,12697.05,384, , 
1272970,12729.7,292, , 
1275417,12754.17,348, , 
1276159,12761.59,392, , 
1276502,12765.02,416, , 
 , , , 3.75, 3.75
1277496,12774.96,376, , 
1279290,12792.9,363, , 
1279900,12799.0,347, , 
1280487,12804.87,344, , 
1281487,12814.87,346, , 
1282137,12821.37,337, , 
1284380,12843.8,350, , 
1285739,12857.39,308, , 
1286029,12860.29,349, , 
1286399,12863.99,360, , 
 , , , 6.25, 3.125
1289527,12895.27,317, , 
1290018,12900.18,304, , 
1290284,12902.84,332, , 
1291721,12917.21,338, , 
1293355,12933.55,374, , 
1293791,12937.91,392, , 
 , , , 3.75, 2.5
1301477,13014.77,361, , 
1301763,13017.63,388, , 
1302658,13026.58,348, , 
1303512,13035.12,330, , 
1306155,13061.55,357, , 
 , , , 3.125, 4.375
1306638,13066.38,427, , 
1309569,13095.69,346, , 
1310966,13109.66,356, , 
1311818,13118.18,311, , 
1312545,13125.45,360, , 
1312940,13129.4,383, , 
 , , , 3.75, 1.875
1315436,13154.36,318, , 
1316655,13166.55,310, , 
1320224,13202.24,321, , 
1320672,13206.72,380, , 
1321194,13211.94,378, , 
1322718,13227.18,326, , 
1324300,13243.0,336, , 
 , , , 4.375, 4.375
1326058,13260.58,378, , 
1326679,13266.79,400, , 
1329770,13297.7,348, , 
1330185,13301.85,385, , 
1330690,13306.9,349, , 
1330990,13309.9,347, , 
1332489,13324.89,361, , 
1332816,13328.16,358, , 
1333945,13339.45,405, , 
 , , , 5.625, 4.375
1334707,13347.07,371, , 
1338137,13381.37,355, , 
1339159,13391.59,336, , 
1339730,13397.3,365, , 
1340206,13402.06,430, , 
1340626,13406.26,384, , 
1342113,13421.13,305, , 
 , , , 4.375, 3.125
1344275,13442.75,373, , 
1344837,13448.37,395, , 
1345265,13452.65,387, , 
1345642,13456.42,335, , 
1347729,13477.29,350, , 
1348477,13484.77,346, , 
1349773,13497.73,323, , 
1350053,13500.53,375, , 
1350794,13507.94,376, , 
1351262,13512.62,336, , 
1351562,13515.62,331, , 
1353399,13533.99,332, , 
1353712,13537.12,348, , 
 , , , 8.125, 2.5
1357527,13575.27,402, , 
1359610,13596.1,412, , 
1360400,13604.0,351, , 
 , , , 1.875, 4.375
1363598,13635.98,367, , 
1364424,13644.24,366, , 
1365903,13659.03,352, , 
1366348,13663.48,359, , 
1367308,13673.08,360, , 
1369169,13691.69,365, , 
1369937,13699.37,299, , 
1370627,13706.27,351, , 
1372317,13723.17,344, , 
1372935,13729.35,349, , 
 , , , 6.25, 11.25
1374053,13740.53,354, , 
1375480,13754.8,367, , 
1375888,13758.88,369, , 
1377713,13777.13,360, , 
1381189,13811.89,386, , 
1382266,13822.66,365, , 
1382587,13825.87,340, , 
1383178,13831.78,369, , 
 , , , 5.0, 6.875
1383540,13835.4,361, , 
1390839,13908.39,389, , 
1391483,13914.83,373, , 
 , , , 1.875, 5.0
1392500,13925.0,365, , 
1393555,13935.55,380, , 
1394207,13942.07,364, , 
1395626,13956.26,355, , 
1396686,13966.86,381, , 
1400321,14003.21,361, , 
1400754,14007.54,351, , 
1401116,14011.16,389, , 
 , , , 5.0, 4.375
1401980,14019.8,355, , 
1403947,14039.47,341, , 
1404270,14042.7,347, , 
1404637,14046.37,384, , 
1404912,14049.12,368, , 
1405506,14055.06,360, , 
1406986,14069.86,352, , 
1409187,14091.87,399, , 
1409941,14099.41,396, , 
 , , , 5.625, 2.5
1413313,14133.13,365, , 
1414073,14140.73,375, , 
1414453,14144.53,343, , 
1416048,14160.48,334, , 
1416360,14163.6,335, , 
1416684,14166.84,355, , 
1417294,14172.94,338, , 
1417852,14178.52,391, , 
1418119,14181.19,379, , 
1420642,14206.42,344, , 
 , , , 6.25, 4.375
1421566,14215.66,355, , 
1421836,14218.36,389, , 
1422097,14220.97,365, , 
1422439,14224.39,371, , 
1423363,14233.63,365, , 
1424560,14245.6,344, , 
1424873,14248.73,377, , 
1425504,14255.04,364, , 
1425915,14259.15,359, , 
1426174,14261.74,392, , 
1426997,14269.97,366, , 
1427694,14276.94,345, , 
1427992,14279.92,359, , 
1428306,14283.06,355, , 
1429514,14295.14,410, , 
 , , , 9.375, 3.75
1433831,14338.31,367, , 
1434247,14342.47,343, , 
1434534,14345.34,392, , 
1434785,14347.85,393, , 
1436368,14363.68,340, , 
1438018,14380.18,323, , 
1438743,14387.43,343, , 
1439317,14393.17,413, , 
1440158,14401.58,343, , 
 , , , 5.625, 3.125
1441537,14415.37,331, , 
1442228,14422.28,345, , 
1443280,14432.8,328, , 
1443552,14435.52,365, , 
1443884,14438.84,381, , 
1444216,14442.16,362, , 
1444719,14447.19,371, , 
1446018,14460.18,334, , 
1446764,14467.64,361, , 
1447985,14479.85,363, , 
1448564,14485.64,364, , 
 , , , 6.875, 3.125
1451622,14516.22,358, , 
1451956,14519.56,371, , 
1455284,14552.84,333, , 
1456049,14560.49,353, , 
1456336,14563.36,361, , 
1456608,14566.08,416, , 
1457532,14575.32,357, , 
1458856,14588.56,326, , 
1459179,14591.79,352, , 
 , , , 5.625, 5.0
1459939,14599.39,332, , 
1461134,14611.34,408, , 
1461486,14614.86,388, , 
1462347,14623.47,342, , 
1463424,14634.24,360, , 
1464063,14640.63,367, , 
1467065,14670.65,348, , 
1467714,14677.14,363, , 
 , , , 5.0, 5.625
1473404,14734.04,375, , 
1477420,14774.2,393, , 
1478431,14784.31,385, , 
 , , , 1.875, 5.625
1480611,14806.11,347, , 
1482482,14824.82,363, , 
1483048,14830.48,389, , 
1483505,14835.05,406, , 
1484129,14841.29,341, , 
1485840,14858.4,346, , 
1486523,14865.23,350, , 
1487346,14873.46,341, , 
 , , , 5.0, 4.375
1488521,14885.21,349, , 
1491186,14911.86,335, , 
1491453,14914.53,352, , 
1492297,14922.97,371, , 
1497471,14974.71,340, , 
 , , , 3.125, 4.375
1497904,14979.04,372, , 
1498625,14986.25,380, , 
1499041,14990.41,376, , 
1499357,14993.57,386, , 
1499629,14996.29,369, , 
1499900,14999.0,381, , 
1500743,15007.43,357, , 
1502003,15020.03,355, , 
1503739,15037.39,390, , 
1505875,15058.75,334, , 
1506168,15061.68,358, , 
1506558,15065.58,352, , 
1506966,15069.66,356, , 
1507265,15072.65,331, , 
 , , , 8.75, 5.625
1507571,15075.71,392, , 
1508425,15084.25,345, , 
1509398,15093.98,358, , 
1509928,15099.28,323, , 
1510537,15105.37,349, , 
1510923,15109.23,345, , 
1512251,15122.51,339, , 
1512562,15125.62,356, , 
1513567,15135.67,370, , 
1514463,15144.63,351, , 
 , , , 6.25, 5.625
1517928,15179.28,375, , 
1518394,15183.94,348, , 
1518721,15187.21,337, , 
1519058,15190.58,319, , 
1519591,15195.91,329, , 
1521696,15216.96,348, , 
1522297,15222.97,369, , 
1522555,15225.55,391, , 
1523699,15236.99,373, , 
1524152,15241.52,339, , 
1524457,15244.57,331, , 
1525743,15257.43,359, , 
 , , , 7.5, 4.375
1527221,15272.21,385, , 
1528051,15280.51,356, , 
1530603,15306.03,362, , 
1531468,15314.68,389, , 
1532060,15320.6,389, , 
1533774,15337.74,333, , 
1534070,15340.7,358, , 
1535458,15354.58,365, , 
 , , , 5.0, 5.0
1536578,15365.78,364, , 
1539491,15394.91,358, , 
1540138,15401.38,360, , 
1541288,15412.88,367, , 
1541859,15418.59,302, , 
1542185,15421.85,310, , 
1543538,15435.38,341, , 
1544448,15444.48,333, , 
 , , , 5.0, 5.625
1545919,15459.19,360, , 
1546243,15462.43,387, , 
1546484,15464.84,363, , 
1549059,15490.59,366, , 
1551092,15510.92,375, , 
1551469,15514.69,335, , 
1552818,15528.18,321, , 
 , , , 4.375, 5.625
1555723,15557.23,366, , 
1557453,15574.53,340, , 
1559073,15590.73,341, , 
1560530,15605.3,354, , 
1562713,15627.13,351, , 
1564110,15641.1,365, , 
 , , , 3.75, 3.125
1565458,15654.58,363, , 
1565792,15657.92,319, , 
1567810,15678.1,330, , 
1568282,15682.82,329, , 
1568570,15685.7,363, , 
1568890,15688.9,354, , 
1572245,15722.45,375, , 
1572746,15727.46,382, , 
 , , , 5.0, 1.875
1574653,15746.53,348, , 
1575284,15752.84,354, , 
1577653,15776.53,361, , 
1577913,15779.13,374, , 
1581922,15819.22,379, , 
1583665,15836.65,331, , 
 , , , 3.75, 1.875
1584724,15847.24,358, , 
1585384,15853.84,356, , 
1586309,15863.09,407, , 
1586794,15867.94,348, , 
1587581,15875.81,309, , 
1587908,15879.08,326, , 
1589516,15895.16,365, , 
1590143,15901.43,332, , 
1591439,15914.39,353, , 
 , , , 5.625, 4.375
1593844,15938.44,370, , 
1595444,15954.44,350, , 
1599365,15993.65,365, , 
1599821,15998.21,368, , 
1600155,16001.55,357, , 
1600398,16003.98,373, , 
1603369,16033.69,326, , 
 , , , 4.375, 4.375
1603687,16036.87,360, , 
1604147,16041.47,389, , 
1606345,16063.45,335, , 
1607732,16077.32,342, , 
1608060,16080.6,329, , 
1608550,16085.5,350, , 
1609388,16093.88,381, , 
1609713,16097.13,346, , 
1611973,16119.73,329, , 
1613768,16137.68,341, , 
 , , , 6.25, 3.125
1617446,16174.46,369, , 
1617730,16177.3,380, , 
1618723,16187.23,329, , 
1619027,16190.27,363, , 
1619348,16193.48,367, , 
1620188,16201.88,385, , 
1620575,16205.75,395, , 
1621165,16211.65,349, , 
 , , , 5.0, 3.125
1623569,16235.69,354, , 
1624003,16240.03,346, , 
1624808,16248.08,360, , 
1625054,16250.54,348, , 
1625557,16255.57,378, , 
1627350,16273.5,342, , 
1628072,16280.72,352, , 
1628915,16289.15,353, , 
1629595,16295.95,374, , 
1630182,16301.82,356, , 
 , , , 6.25, 3.75
1633079,16330.79,371, , 
1634783,16347.83,382, , 
1635492,16354.92,339, , 
1638427,16384.27,365, , 
1639099,16390.99,373, , 
 , , , 3.125, 3.75
1642047,16420.47,343, , 
1643008,16430.08,376, , 
1643940,16439.4,399, , 
1646300,16463.0,343, , 
1649172,16491.72,369, , 
 , , , 3.125, 3.75
1651937,16519.37,335, , 
1653161,16531.61,397, , 
1653716,16537.16,370, , 
1653999,16539.99,366, , 
1656743,16567.43,313, , 
1657357,16573.57,391, , 
1657841,16578.41,383, , 
1660277,16602.77,354, , 
1660596,16605.96,365, , 
 , , , 5.625, 5.625
1661224,16612.24,348, , 
1661540,16615.4,321, , 
1662003,16620.03,362, , 
1662240,16622.4,378, , 
1662565,16625.65,358, , 
1662839,16628.39,387, , 
1663672,16636.72,337, , 
1664843,16648.43,339, , 
1665132,16651.32,341, , 
1665559,16655.59,347, , 
1665876,16658.76,376, , 
1667006,16670.06,341, , 
1669119,16691.19,341, , 
1669785,16697.85,360, , 
1670121,16701.21,336, , 
 , , , 9.375, 4.375
1671505,16715.05,352, , 
1673579,16735.79,348, , 
1674815,16748.15,377, , 
1675132,16751.32,370, , 
1675641,16756.41,349, , 
1676110,16761.1,330, , 
1678311,16783.11,374, , 
1679701,16797.01,364, , 
 , , , 5.0, 5.0
1681077,16810.77,338, , 
1681713,16817.13,366, , 
1682130,16821.3,353, , 
1682452,16824.52,354, , 
1682784,16827.84,346, , 
1683095,16830.95,334, , 
1683397,16833.97,358, , 
1686540,16865.4,362, , 
1687406,16874.06,346, , 
1688981,16889.81,335, , 
1689311,16893.11,356, , 
 , , , 6.875, 4.375
1690793,16907.93,338, , 
1694488,16944.88,352, , 
1696099,16960.99,312, , 
1696898,16968.98,347, , 
1697203,16972.03,393, , 
1698042,16980.42,378, , 
1698305,16983.05,339, , 
 , , , 4.375, 3.125
1700785,17007.85,346, , 
1701102,17011.02,357, , 
1701715,17017.15,328, , 
1701960,17019.6,396, , 
1704112,17041.12,344, , 
1705399,17053.99,333, , 
1706263,17062.63,381, , 
1706971,17069.71,366, , 
1708899,17088.99,364, , 
 , , , 5.625, 3.125
1709226,17092.26,354, , 
1711168,17111.68,393, , 
1712692,17126.92,340, , 
1713525,17135.25,346, , 
1714068,17140.68,398, , 
1714307,17143.07,361, , 
1715706,17157.06,349, , 
1716032,17160.32,357, , 
1716354,17163.54,341, , 
1717234,17172.34,350, , 
1717580,17175.8,346, , 
 , , , 6.875, 3.75
1718669,17186.69,348, , 
1719205,17192.05,345, , 
1723545,17235.45,355, , 
1723787,17237.87,393, , 
1724780,17247.8,378, , 
1725925,17259.25,347, , 
1726976,17269.76,341, , 
1727583,17275.83,382, , 
 , , , 5.0, 5.0
1729564,17295.64,384, , 
1729894,17298.94,384, , 
1730501,17305.01,337, , 
1732338,17323.38,361, , 
1733242,17332.42,364, , 
1733984,17339.84,366, , 
1734221,17342.21,350, , 
1737406,17374.06,377, , 
1737722,17377.22,378, , 
 , , , 5.625, 3.75
1738011,17380.11,380, , 
1739010,17390.1,350, , 
1739236,17392.36,355, , 
1739575,17395.75,362, , 
1740503,17405.03,361, , 
1741120,17411.2,340, , 
1741432,17414.32,353, , 
1741757,17417.57,373, , 
1743994,17439.94,365, , 
1746268,17462.68,340, , 
1746585,17465.85,362, , 
1747254,17472.54,337, , 
 , , , 7.5, 3.75
1748437,17484.37,382, , 
1748753,17487.53,360, , 
1749663,17496.63,363, , 
1749980,17499.8,365, , 
1750843,17508.43,327, , 
1751363,17513.63,357, , 
1753009,17530.09,354, , 
1753311,17533.11,359, , 
1753974,17539.74,358, , 
1754299,17542.99,356, , 
1754612,17546.12,371, , 
1755063,17550.63,370, , 
1755386,17553.86,373, , 
1755868,17558.68,364, , 
1756755,17567.55,339, , 
 , , , 9.375, 3.125
1758159,17581.59,360, , 
1759305,17593.05,394, , 
1760078,17600.78,380, , 
1762179,17621.79,341, , 
1763752,17637.52,423, , 
1764478,17644.78,363, , 
 , , , 3.75, 2.5
1768147,17681.47,386, , 
1768957,17689.57,337, , 
1769204,17692.04,368, , 
1770905,17709.05,346, , 
1771906,17719.06,359, , 
1772569,17725.69,406, , 
1775042,17750.42,355, , 
1775772,17757.72,330, , 
1776121,17761.21,365, , 
 , , , 5.625, 5.625
1776948,17769.48,360, , 
1777302,17773.02,398, , 
1778046,17780.46,373, , 
1779087,17790.87,355, , 
1779405,17794.05,369, , 
1781219,17812.19,390, , 
1781756,17817.56,382, , 
1782340,17823.4,355, , 
1782672,17826.72,363, , 
1783648,17836.48,357, , 
1783949,17839.49,363, , 
1784573,17845.73,359, , 
 , , , 7.5, 4.375
1785947,17859.47,370, , 
1786289,17862.89,378, , 
1786594,17865.94,383, , 
1787006,17870.06,356, , 
1787333,17873.33,364, , 
1788803,17888.03,364, , 
1790684,17906.84,376, , 
1790963,17909.63,373, , 
1791287,17912.87,389, , 
1791935,17919.35,321, , 
1794687,17946.87,375, , 
1795418,17954.18,378, , 
 , , , 7.5, 3.75
1797219,17972.19,389, , 
1797723,17977.23,352, , 
1798991,17989.91,333, , 
1801767,18017.67,404, , 
1804331,18043.31,364, , 
1804655,18046.55,386, , 
 , , , 3.75, 1.875
1806250,18062.5,349, , 
1806928,18069.28,350, , 
1810398,18103.98,374, , 
1810822,18108.22,327, , 
1811265,18112.65,354, , 
1812017,18120.17,339, , 
1812568,18125.68,354, , 
1813603,18136.03,366, , 
1814171,18141.71,370, , 
1814415,18144.15,350, , 
 , , , 6.25, 3.125
1814790,18147.9,400, , 
1815256,18152.56,372, , 
1816194,18161.94,340, , 
1817722,18177.22,360, , 
1818260,18182.6,372, , 
1819090,18190.9,401, , 
1819331,18193.31,382, , 
1819629,18196.29,386, , 
1820073,18200.73,375, , 
1821114,18211.14,352, , 
1823598,18235.98,409, , 
1823917,18239.17,392, , 
 , , , 7.5, 4.375
1826775,18267.75,358, , 
1827129,18271.29,367, , 
1827683,18276.83,349, , 
1828420,18284.2,376, , 
1830879,18308.79,346, , 
1831403,18314.03,349, , 
1831751,18317.51,371, , 
1832577,18325.77,348, , 
 , , , 5.0, 2.5
1834267,18342.67,333, , 
1837144,18371.44,322, , 
1838580,18385.8,362, , 
1838992,18389.92,406, , 
1842237,18422.37,310, , 
1842567,18425.67,299, , 
1843107,18431.07,320, , 
1843374,18433.74,319, , 
 , , , 5.0, 1.25
1843919,18439.19,345, , 
1847060,18470.6,412, , 
1849092,18490.92,341, , 
1850674,18506.74,353, , 
1851265,18512.65,367, , 
1852064,18520.64,363, , 
1852752,18527.52,316, , 
 , , , 4.375, 3.75
1853822,18538.22,393, , 
1854325,18543.25,414, , 
1856440,18564.4,368, , 
1857113,18571.13,344, , 
1857708,18577.08,361, , 
1860054,18600.54,387, , 
1860647,18606.47,413, , 
 , , , 4.375, 3.75
1862757,18627.57,304, , 
1863076,18630.76,358, , 
1863800,18638.0,309, , 
1867321,18673.21,434, , 
1871657,18716.57,310, , 
 , , , 3.125, 1.875
1874107,18741.07,349, , 
1874463,18744.63,376, , 
1877228,18772.28,278, , 
1878612,18786.12,310, , 
1880250,18802.5,372, , 
1880642,18806.42,370, , 
 , , , 3.75, 2.5
1887050,18870.5,348, , 
1888272,18882.72,401, , 
1888887,18888.87,410, , 
1889738,18897.38,330, , 
1890137,18901.37,352, , 
1891988,18919.88,345, , 
 , , , 3.75, 1.875
1892458,18924.58,332, , 
1895061,18950.61,388, , 
1899438,18994.38,338, , 
 , , , 1.875, 2.5
1902324,19023.24,392, , 
1902669,19026.69,416, , 
1905512,19055.12,351, , 
1905843,19058.43,335, , 
1907063,19070.63,340, , 
1908052,19080.52,389, , 
1908610,19086.1,399, , 
1910479,19104.79,347, , 
1911845,19118.45,365, , 
 , , , 5.625, 4.375
1912627,19126.27,322, , 
1913014,19130.14,357, , 
1913579,19135.79,346, , 
1915654,19156.54,392, , 
1915918,19159.18,415, , 
1916384,19163.84,389, , 
1919269,19192.69,366, , 
 , , , 4.375, 4.375
1920547,19205.47,368, , 
1920822,19208.22,444, , 
1921169,19211.69,427, , 
1922337,19223.37,330, , 
1925524,19255.24,358, , 
1927304,19273.04,351, , 
1929501,19295.01,357, , 
 , , , 4.375, 4.375
1929920,19299.2,416, , 
1931008,19310.08,350, , 
1931760,19317.6,368, , 
1932096,19320.96,371, , 
1933145,19331.45,341, , 
1933712,19337.12,358, , 
1934023,19340.23,357, , 
1934404,19344.04,426, , 
1935268,19352.68,369, , 
 , , , 5.625, 5.625
1940039,19400.39,406, , 
1940700,19407.0,455, , 
1941989,19419.89,329, , 
1943945,19439.45,342, , 
1945817,19458.17,404, , 
1946058,19460.58,416, , 
1946602,19466.02,357, , 
1946974,19469.74,350, , 
 , , , 5.0, 3.125
1949507,19495.07,340, , 
1951078,19510.78,374, , 
1951525,19515.25,406, , 
1953922,19539.22,322, , 
1956424,19564.24,346, , 
1956973,19569.73,346, , 
1958438,19584.38,345, , 
 , , , 4.375, 2.5
1959774,19597.74,413, , 
1960817,19608.17,326, , 
1963238,19632.38,345, , 
1965142,19651.42,416, , 
1965570,19655.7,385, , 
 , , , 3.125, 2.5
1971506,19715.06,347, , 
1972017,19720.17,369, , 
1972408,19724.08,400, , 
1972971,19729.71,374, , 
1973413,19734.13,353, , 
1974038,19740.38,354, , 
1975439,19754.39,334, , 
 , , , 4.375, 3.75
1978231,19782.31,345, , 
1978746,19787.46,387, , 
1981530,19815.3,353, , 
1981866,19818.66,398, , 
1984446,19844.46,330, , 
 , , , 3.125, 2.5
1989893,19898.93,326, , 
1990697,19906.97,332, , 
1991520,19915.2,385, , 
1992204,19922.04,372, , 
1993769,19937.69,307, , 
1994077,19940.77,342, , 
1994397,19943.97,347, , 
1995852,19958.52,338, , 
 , , , 5.0, 2.5
1998100,19981.0,402, , 
1998710,19987.1,409, , 
2001681,20016.81,348, , 
2003978,20039.78,366, , 
2004523,20045.23,403, , 
 , , , 3.125, 3.75
2007668,20076.68,382, , 
2008102,20081.02,339, , 
2010660,20106.6,368, , 
2011217,20112.17,418, , 
2011721,20117.21,431, , 
2015084,20150.84,334, , 
 , , , 3.75, 3.75
2016795,20167.95,379, , 
2017186,20171.86,413, , 
2017528,20175.28,434, , 
2018892,20188.92,344, , 
2020960,20209.6,339, , 
2022960,20229.6,376, , 
2023340,20233.4,395, , 
2023843,20238.43,369, , 
2024434,20244.34,374, , 
 , , , 5.625, 5.0
2028431,20284.31,407, , 
2028758,20287.58,422, , 
2029386,20293.86,353, , 
2031867,20318.67,363, , 
2034691,20346.91,383, , 
2035155,20351.55,424, , 
 , , , 3.75, 1.875
2035676,20356.76,321, , 
2036659,20366.59,335, , 
2037863,20378.63,355, , 
2038536,20385.36,349, , 
2038869,20388.69,355, , 
2040011,20400.11,343, , 
2042184,20421.84,399, , 
2042529,20425.29,382, , 
 , , , 5.0, 1.875
2045556,20455.56,344, , 
2048608,20486.08,325, , 
2049795,20497.95,382, , 
2050141,20501.41,409, , 
2052550,20525.5,316, , 
2054042,20540.42,324, , 
 , , , 3.75, 1.25
2056720,20567.2,341, , 
2057666,20576.66,390, , 
2058202,20582.02,405, , 
2061062,20610.62,332, , 
2061858,20618.58,362, , 
2062709,20627.09,344, , 
2063229,20632.29,365, , 
2063548,20635.48,401, , 
 , , , 5.0, 2.5
2066360,20663.6,319, , 
2070621,20706.21,427, , 
2073335,20733.35,348, , 
 , , , 1.875, 1.875
2074151,20741.51,354, , 
2074612,20746.12,337, , 
2075470,20754.7,324, , 
2075941,20759.41,407, , 
2076390,20763.9,375, , 
2078319,20783.19,322, , 
2078711,20787.11,355, , 
2079732,20797.32,335, , 
2081803,20818.03,341, , 
2082342,20823.42,328, , 
2083179,20831.79,392, , 
 , , , 6.875, 3.125
2087024,20870.24,361, , 
2089367,20893.67,457, , 
2091032,20910.32,338, , 
2092224,20922.24,331, , 
2092518,20925.18,366, , 
2093062,20930.62,347, , 
 , , , 3.75, 3.125
2093642,20936.42,360, , 
2094653,20946.53,393, , 
2094977,20949.77,403, , 
2095519,20955.19,399, , 
2101371,21013.71,378, , 
2101811,21018.11,402, , 
 , , , 3.75, 2.5
2105370,21053.7,355, , 
2105802,21058.02,445, , 
2106408,21064.08,393, , 
2107223,21072.23,349, , 
2107518,21075.18,334, , 
2108151,21081.51,346, , 
2110269,21102.69,344, , 
 , , , 4.375, 5.0
2112817,21128.17,349, , 
2113591,21135.91,373, , 
2115288,21152.88,337, , 
2115607,21156.07,427, , 
2115957,21159.57,404, , 
2116383,21163.83,417, , 
2116729,21167.29,411, , 
2117282,21172.82,381, , 
2118227,21182.27,407, , 
2118874,21188.74,341, , 
 , , , 6.25, 6.875
2122216,21222.16,382, , 
2122499,21224.99,370, , 
2125992,21259.92,390, , 
2126358,21263.58,409, , 
2126768,21267.68,425, , 
2127178,21271.78,348, , 
2129427,21294.27,364, , 
2129771,21297.71,371, , 
2130811,21308.11,380, , 
 , , , 5.625, 3.125
2131403,21314.03,392, , 
2131870,21318.7,410, , 
2132645,21326.45,340, , 
2134374,21343.74,351, , 
2135118,21351.18,373, , 
2136712,21367.12,385, , 
2137646,21376.46,359, , 
2138013,21380.13,394, , 
2140561,21405.61,355, , 
 , , , 5.625, 4.375
2141732,21417.32,386, , 
2142213,21422.13,385, , 
2142867,21428.67,397, , 
2144341,21443.41,346, , 
2145832,21458.32,396, , 
2146132,21461.32,416, , 
2147159,21471.59,359, , 
2148748,21487.48,351, , 
2149078,21490.78,380, , 
2149727,21497.27,368, , 
2150245,21502.45,402, , 
 , , , 6.875, 3.75
2151011,21510.11,379, , 
2155619,21556.19,422, , 
2156052,21560.52,436, , 
2158872,21588.72,363, , 
2159632,21596.32,374, , 
2159996,21599.96,359, , 
 , , , 3.75, 3.75
2160507,21605.07,362, , 
2160764,21607.64,414, , 
2161020,21610.2,368, , 
2161382,21613.82,390, , 
2164040,21640.4,379, , 
2164922,21649.22,405, , 
2167510,21675.1,352, , 
2168446,21684.46,380, , 
2168891,21688.91,379, , 
2169225,21692.25,356, , 
2169546,21695.46,360, , 
 , , , 6.875, 5.0
2169863,21698.63,392, , 
2170127,21701.27,371, , 
2170637,21706.37,380, , 
2173627,21736.27,385, , 
2174278,21742.78,383, , 
2174885,21748.85,430, , 
2175498,21754.98,383, , 
2178453,21784.53,377, , 
2179208,21792.08,410, , 
 , , , 5.625, 5.625
2179546,21795.46,387, , 
2179819,21798.19,383, , 
2180250,21802.5,396, , 
2180992,21809.92,348, , 
2182764,21827.64,364, , 
2183604,21836.04,358, , 
2183915,21839.15,367, , 
2185425,21854.25,391, , 
2188117,21881.17,385, , 
2188809,21888.09,399, , 
 , , , 6.25, 5.0
2190869,21908.69,366, , 
2191560,21915.6,355, , 
2192667,21926.67,377, , 
2193013,21930.13,385, , 
2194506,21945.06,360, , 
2194758,21947.58,397, , 
2195952,21959.52,347, , 
2196557,21965.57,350, , 
2196975,21969.75,319, , 
2197291,21972.91,361, , 
 , , , 6.25, 6.25
2199041,21990.41,410, , 
2199311,21993.11,409, , 
2199649,21996.49,380, , 
2200483,22004.83,367, , 
2202557,22025.57,355, , 
2203250,22032.5,377, , 
2203556,22035.56,419, , 
2203960,22039.6,403, , 
2204264,22042.64,380, , 
2206673,22066.73,376, , 
2207652,22076.52,345, , 
 , , , 6.875, 5.0
2208781,22087.81,380, , 
2210894,22108.94,386, , 
2212674,22126.74,391, , 
2212942,22129.42,371, , 
2213232,22132.32,387, , 
2213549,22135.49,387, , 
2214210,22142.1,351, , 
2214651,22146.51,393, , 
2214982,22149.82,369, , 
2216511,22165.11,396, , 
2216850,22168.5,362, , 
2217185,22171.85,370, , 
 , , , 7.5, 3.75
2219844,22198.44,381, , 
2220189,22201.89,388, , 
2220688,22206.88,388, , 
2221297,22212.97,396, , 
2222950,22229.5,339, , 
2223270,22232.7,381, , 
2224165,22241.65,356, , 
 , , , 4.375, 2.5
2228205,22282.05,356, , 
2228634,22286.34,377, , 
2228957,22289.57,372, , 
2229627,22296.27,377, , 
2230203,22302.03,388, , 
2230527,22305.27,380, , 
2231424,22314.24,375, , 
2232462,22324.62,349, , 
2234346,22343.46,365, , 
2235244,22352.44,394, , 
2236473,22364.73,334, , 
 , , , 6.875, 3.75
2238701,22387.01,405, , 
2239475,22394.75,359, , 
2241774,22417.74,377, , 
2243254,22432.54,384, , 
2243515,22435.15,383, , 
2244104,22441.04,398, , 
2245769,22457.69,384, , 
 , , , 4.375, 5.625
2247817,22478.17,376, , 
2248141,22481.41,354, , 
2248960,22489.6,376, , 
2250379,22503.79,368, , 
2251912,22519.12,367, , 
2253385,22533.85,393, , 
2254099,22540.99,369, , 
2255221,22552.21,334, , 
 , , , 5.0, 5.0
2256271,22562.71,370, , 
2257324,22573.24,344, , 
2257789,22577.89,408, , 
2258290,22582.9,376, , 
2261239,22612.39,383, , 
2263059,22630.59,378, , 
2263515,22635.15,366, , 
2264952,22649.52,355, , 
2265864,22658.64,375, , 
 , , , 5.625, 5.625
2266332,22663.32,387, , 
2271066,22710.66,393, , 
2272239,22722.39,391, , 
2272581,22725.81,396, , 
2273106,22731.06,394, , 
2273713,22737.13,362, , 
2274833,22748.33,358, , 
 , , , 4.375, 5.0
2276789,22767.89,358, , 
2277482,22774.82,379, , 
2278290,22782.9,369, , 
2280617,22806.17,364, , 
2281569,22815.69,369, , 
2282098,22820.98,385, , 
2282414,22824.14,399, , 
2283378,22833.78,330, , 
 , , , 5.0, 4.375
2287536,22875.36,399, , 
2288123,22881.23,377, , 
2288714,22887.14,322, , 
2289988,22899.88,355, , 
2291211,22912.11,391, , 
2292011,22920.11,397, , 
2292290,22922.9,393, , 
2293026,22930.26,373, , 
2293487,22934.87,358, , 
2293822,22938.22,328, , 
 , , , 6.25, 3.75
2294865,22948.65,362, , 
2296791,22967.91,402, , 
2297559,22975.59,379, , 
2298275,22982.75,374, , 
2299309,22993.09,357, , 
2300069,23000.69,341, , 
2300726,23007.26,358, , 
2301372,23013.72,392, , 
2302211,23022.11,379, , 
2303063,23030.63,350, , 
2303712,23037.12,349, , 
2304160,23041.6,316, , 
 , , , 7.5, 4.375
2305070,23050.7,367, , 
2305531,23055.31,363, , 
2306435,23064.35,429, , 
2306980,23069.8,330, , 
2309308,23093.08,374, , 
2310804,23108.04,384, , 
2313332,23133.32,332, , 
 , , , 4.375, 3.75
2315157,23151.57,344, , 
2316082,23160.82,343, , 
2316360,23163.6,380, , 
2317611,23176.11,363, , 
2318578,23185.78,362, , 
2319609,23196.09,397, , 
2320144,23201.44,390, , 
2322547,23225.47,358, , 
 , , , 5.0, 5.625
2323629,23236.29,382, , 
2324437,23244.37,352, , 
2324720,23247.2,400, , 
2328289,23282.89,357, , 
2328909,23289.09,379, , 
2329426,23294.26,414, , 
2330050,23300.5,359, , 
2330642,23306.42,362, , 
2332072,23320.72,343, , 
2332732,23327.32,358, , 
 , , , 6.25, 5.0
2333051,23330.51,348, , 
2334885,23348.85,408, , 
2337948,23379.48,366, , 
2338631,23386.31,362, , 
2339233,23392.33,362, , 
2339954,23399.54,358, , 
2340823,23408.23,372, , 
 , , , 4.375, 3.125
2345247,23452.47,396, , 
2345624,23456.24,382, , 
2346041,23460.41,391, , 
2348903,23489.03,320, , 
2349887,23498.87,386, , 
2351016,23510.16,387, , 
 , , , 3.75, 2.5
2353363,23533.63,359, , 
2355792,23557.92,370, , 
2357691,23576.91,362, , 
2358038,23580.38,384, , 
2358331,23583.31,376, , 
2361804,23618.04,348, , 
 , , , 3.75, 3.75
2362139,23621.39,383, , 
2362837,23628.37,353, , 
2363408,23634.08,357, , 
2363678,23636.78,419, , 
2368328,23683.28,379, , 
2368698,23686.98,366, , 
2369333,23693.33,396, , 
2369910,23699.1,364, , 
2371293,23712.93,320, , 
 , , , 5.625, 2.5
2371943,23719.43,364, , 
2372680,23726.8,384, , 
2373335,23733.35,423, , 
2373630,23736.3,402, , 
2373907,23739.07,388, , 
2375056,23750.56,327, , 
2377883,23778.83,391, , 
2378410,23784.1,401, , 
2380665,23806.65,347, , 
 , , , 5.625, 5.0
2382952,23829.52,381, , 
2385416,23854.16,343, , 
2386118,23861.18,361, , 
2386474,23864.74,361, , 
2386945,23869.45,376, , 
2387282,23872.82,367, , 
2387776,23877.76,404, , 
2388361,23883.61,358, , 
 , , , 5.0, 3.75
2390689,23906.89,346, , 
2391018,23910.18,344, , 
2392922,23929.22,392, , 
2393421,23934.21,401, , 
2396764,23967.64,370, , 
2397093,23970.93,369, , 
2398047,23980.47,372, , 
 , , , 4.375, 2.5
2400298,24002.98,294, , 
2400902,24009.02,330, , 
2402319,24023.19,366, , 
2403516,24035.16,418, , 
2403812,24038.12,399, , 
2405671,24056.71,358, , 
2406025,24060.25,352, , 
2406377,24063.77,387, , 
2406753,24067.53,353, , 
 , , , 5.625, 7.5
2410845,24108.45,385, , 
2411252,24112.52,376, , 
2411864,24118.64,379, , 
2414081,24140.81,374, , 
2414420,24144.2,333, , 
2414994,24149.94,376, , 
2415778,24157.78,397, , 
2418378,24183.78,354, , 
 , , , 5.0, 4.375
2419579,24195.79,402, , 
2419847,24198.47,382, , 
2420194,24201.94,387, , 
2422334,24223.34,361, , 
2423288,24232.88,406, , 
2424119,24241.19,385, , 
2425420,24254.2,359, , 
2426175,24261.75,367, , 
2426522,24265.22,345, , 
2427015,24270.15,411, , 
2427355,24273.55,423, , 
 , , , 6.875, 2.5
2430416,24304.16,361, , 
2430751,24307.51,348, , 
2431103,24311.03,328, , 
2431781,24317.81,399, , 
2432056,24320.56,388, , 
2432383,24323.83,399, , 
2434832,24348.32,371, , 
2435596,24355.96,378, , 
2436180,24361.8,357, , 
2436772,24367.72,388, , 
2437019,24370.19,363, , 
 , , , 6.875, 3.125
2438682,24386.82,357, , 
2441195,24411.95,373, , 
2441443,24414.43,416, , 
2442096,24420.96,372, , 
2444087,24440.87,355, , 
2444813,24448.13,332, , 
2445250,24452.5,335, , 
2445829,24458.29,400, , 
2446084,24460.84,381, , 
2446330,24463.3,391, , 
2446641,24466.41,354, , 
2447466,24474.66,324, , 
 , , , 7.5, 4.375
2450055,24500.55,364, , 
2450712,24507.12,383, , 
2450993,24509.93,417, , 
2451882,24518.82,365, , 
2452755,24527.55,327, , 
2455138,24551.38,404, , 
2456074,24560.74,390, , 
2456406,24564.06,350, , 
 , , , 5.0, 3.125
2458495,24584.95,349, , 
2460895,24608.95,356, , 
2461967,24619.67,377, , 
2463892,24638.92,334, , 
2464245,24642.45,368, , 
2466162,24661.62,348, , 
 , , , 3.75, 3.125
2467697,24676.97,365, , 
2468121,24681.21,367, , 
2468422,24684.22,380, , 
2468862,24688.62,362, , 
2469198,24691.98,332, , 
2472056,24720.56,381, , 
2473243,24732.43,374, , 
2475290,24752.9,351, , 
2476040,24760.4,354, , 
2476331,24763.31,394, , 
2476674,24766.74,326, , 
 , , , 6.875, 5.0
2478018,24780.18,382, , 
2479487,24794.87,339, , 
2479818,24798.18,337, , 
2480747,24807.47,349, , 
2481857,24818.57,373, , 
2482128,24821.28,408, , 
2482377,24823.77,401, , 
2482723,24827.23,387, , 
2484589,24845.89,341, , 
2485275,24852.75,343, , 
2485811,24858.11,370, , 
2486085,24860.85,424, , 
2486458,24864.58,367, , 
 , , , 8.125, 3.75
2486713,24867.13,396, , 
2488641,24886.41,365, , 
2489257,24892.57,358, , 
2489860,24898.6,358, , 
2491363,24913.63,362, , 
2493862,24938.62,382, , 
2494652,24946.52,355, , 
 , , , 4.375, 3.125
2497517,24975.17,336, , 
2497840,24978.4,358, , 
2498153,24981.53,385, , 
2498410,24984.1,362, , 
2498650,24986.5,373, , 
2502012,25020.12,376, , 
2502348,25023.48,361, , 
2502622,25026.22,392, , 
2502882,25028.82,384, , 
2503480,25034.8,328, , 
2504773,25047.73,342, , 
2505790,25057.9,331, , 
 , , , 7.5, 4.375
2506353,25063.53,356, , 
2506928,25069.28,388, , 
2507368,25073.68,395, , 
2508010,25080.1,317, , 
2509904,25099.04,346, , 
2513041,25130.41,364, , 
2513761,25137.61,314, , 
2514379,25143.79,353, , 
2515065,25150.65,368, , 
2515407,25154.07,379, , 
 , , , 6.25, 3.75
2516620,25166.2,361, , 
2517336,25173.36,343, , 
2518495,25184.95,326, , 
2519592,25195.92,348, , 
2519900,25199.0,336, , 
2520586,25205.86,365, , 
2520898,25208.98,373, , 
2521858,25218.58,391, , 
2522172,25221.72,371, , 
2524133,25241.33,325, , 
2524969,25249.69,327, , 
 , , , 6.875, 4.375
2525605,25256.05,376, , 
2526582,25265.82,363, , 
2526887,25268.87,376, , 
2527383,25273.83,412, , 
2528108,25281.08,371, , 
2528667,25286.67,302, , 
2531379,25313.79,336, , 
2532125,25321.25,355, , 
2532382,25323.82,396, , 
 , , , 5.625, 3.75
2535456,25354.56,316, , 
2536207,25362.07,350, , 
2537092,25370.92,386, , 
2537961,25379.61,392, , 
2539828,25398.28,340, , 
2540145,25401.45,363, , 
2541206,25412.06,389, , 
2541867,25418.67,346, , 
2542490,25424.9,371, , 
2543621,25436.21,346, , 
 , , , 6.25, 5.0
2545172,25451.72,327, , 
2545776,25457.76,345, , 
2546096,25460.96,387, , 
2546410,25464.1,403, , 
2548161,25481.61,348, , 
2549825,25498.25,319, , 
2550954,25509.54,350, , 
2551300,25513.0,363, , 
2551656,25516.56,330, , 
2552126,25521.26,369, , 
2552511,25525.11,398, , 
2553334,25533.34,360, , 
2553698,25536.98,336, , 
2555784,25557.84,326, , 
 , , , 8.75, 4.375
2556081,25560.81,395, , 
2557019,25570.19,345, , 
2557295,25572.95,358, , 
2558581,25585.81,338, , 
2559573,25595.73,363, , 
2560373,25603.73,353, , 
2560884,25608.84,320, , 
2561518,25615.18,367, , 
2562202,25622.02,373, , 
2562512,25625.12,386, , 
2563004,25630.04,358, , 
 , , , 6.875, 3.75
2563591,25635.91,332, , 
2565883,25658.83,360, , 
2567046,25670.46,344, , 
2567612,25676.12,356, , 
2568193,25681.93,354, , 
2568699,25686.99,360, , 
2570063,25700.63,325, , 
2570384,25703.84,348, , 
2571149,25711.49,355, , 
 , , , 5.625, 4.375
2573301,25733.01,372, , 
2573535,25735.35,393, , 
2577229,25772.29,342, , 
2577670,25776.7,347, , 
2578005,25780.05,371, , 
2578315,25783.15,337, , 
2578893,25788.93,399, , 
2579705,25797.05,327, , 
2582759,25827.59,315, , 
 , , , 5.625, 4.375
2583365,25833.65,353, , 
2584096,25840.96,357, , 
2585727,25857.27,330, , 
2587763,25877.63,349, , 
2588107,25881.07,350, , 
2588467,25884.67,358, , 
2589083,25890.83,343, , 
2589323,25893.23,351, , 
2589554,25895.54,398, , 
2589961,25899.61,391, , 
2591206,25912.06,338, , 
 , , , 6.875, 2.5
2593057,25930.57,342, , 
2594294,25942.94,326, , 
2595186,25951.86,383, , 
2595915,25959.15,391, , 
2600986,26009.86,381, , 
 , , , 3.125, 3.75
2602202,26022.02,337, , 
2603932,26039.32,312, , 
2605717,26057.17,363, , 
2608503,26085.03,395, , 
2608800,26088.0,384, , 
2609149,26091.49,378, , 
2609654,26096.54,411, , 
2610678,26106.78,343, , 
 , , , 5.0, 5.625
2613976,26139.76,404, , 
2616769,26167.69,335, , 
2618080,26180.8,344, , 
2618931,26189.31,421, , 
2619191,26191.91,424, , 
2620001,26200.01,373, , 
 , , , 3.75, 3.125
2624243,26242.43,360, , 
2624687,26246.87,364, , 
2625139,26251.39,377, , 
2628143,26281.43,333, , 
2628808,26288.08,357, , 
2629166,26291.66,353, , 
 , , , 3.75, 3.75
2630669,26306.69,404, , 
2631262,26312.62,398, , 
2634492,26344.92,369, , 
2634821,26348.21,359, , 
2635527,26355.27,354, , 
2637187,26371.87,344, , 
2639367,26393.67,320, , 
 , , , 4.375, 5.0
2641255,26412.55,402, , 
2641946,26419.46,379, , 
2645391,26453.91,391, , 
2645731,26457.31,387, , 
2648236,26482.36,315, , 
2649331,26493.31,339, , 
2649670,26496.7,354, , 
 , , , 4.375, 3.75
2651951,26519.51,352, , 
2652253,26522.53,400, , 
2652992,26529.92,375, , 
2657645,26576.45,420, , 
2658574,26585.74,350, , 
 , , , 3.125, 4.375
2660503,26605.03,348, , 
2660875,26608.75,348, , 
2662024,26620.24,399, , 
2662367,26623.67,380, , 
2662683,26626.83,314, , 
2662976,26629.76,340, , 
2665173,26651.73,343, , 
2667785,26677.85,348, , 
 , , , 5.0, 3.125
2670098,26700.98,340, , 
2671262,26712.62,366, , 
2676575,26765.75,323, , 
2676971,26769.71,339, , 
2678068,26780.68,338, , 
2678323,26783.23,363, , 
 , , , 3.75, 2.5
2678574,26785.74,386, , 
2678990,26789.9,382, , 
2679375,26793.75,383, , 
2681373,26813.73,348, , 
2682423,26824.23,352, , 
2682861,26828.61,363, , 
2683207,26832.07,381, , 
2683567,26835.67,366, , 
2686078,26860.78,358, , 
2686996,26869.96,344, , 
2687258,26872.58,400, , 
2687959,26879.59,354, , 
 , , , 7.5, 3.75
2689733,26897.33,356, , 
2690171,26901.71,336, , 
2692063,26920.63,340, , 
2693753,26937.53,341, , 
2694105,26941.05,421, , 
2695353,26953.53,354, , 
2695805,26958.05,367, , 
2696971,26969.71,336, , 
 , , , 5.0, 2.5
2698259,26982.59,351, , 
2699026,26990.26,317, , 
2699707,26997.07,333, , 
2701862,27018.62,369, , 
2702270,27022.7,354, , 
2704276,27042.76,325, , 
2705830,27058.3,325, , 
 , , , 4.375, 4.375
2708294,27082.94,365, , 
2711771,27117.71,334, , 
2712898,27128.98,340, , 
2714858,27148.58,360, , 
2715340,27153.4,321, , 
2716674,27166.74,347, , 
 , , , 3.75, 5.0
2717617,27176.17,325, , 
2717972,27179.72,334, , 
2719367,27193.67,387, , 
2721157,27211.57,313, , 
2721858,27218.58,348, , 
2723289,27232.89,343, , 
2724983,27249.83,383, , 
2725851,27258.51,343, , 
 , , , 5.0, 3.75
2729421,27294.21,376, , 
2729796,27297.96,399, , 
2730857,27308.57,319, , 
2732343,27323.43,315, , 
2734509,27345.09,338, , 
2735851,27358.51,375, , 
 , , , 3.75, 2.5
2736345,27363.45,384, , 
2739884,27398.84,313, , 
2740418,27404.18,330, , 
2741099,27410.99,322, , 
2742093,27420.93,307, , 
2744378,27443.78,388, , 
2744757,27447.57,411, , 
 , , , 4.375, 3.75
2746488,27464.88,305, , 
2748337,27483.37,342, , 
2748672,27486.72,337, , 
2750144,27501.44,335, , 
2750943,27509.43,388, , 
2751322,27513.22,409, , 
2754177,27541.77,309, , 
2756231,27562.31,348, , 
 , , , 5.0, 2.5
2757581,27575.81,328, , 
2758654,27586.54,367, , 
2759003,27590.03,377, , 
2759448,27594.48,351, , 
2760943,27609.43,333, , 
2762360,27623.6,361, , 
2763033,27630.33,353, , 
2763487,27634.87,357, , 
2763824,27638.24,366, , 
2764144,27641.44,393, , 
2764850,27648.5,372, , 
 , , , 6.875, 4.375
2767706,27677.06,384, , 
2770288,27702.88,334, , 
2771605,27716.05,360, , 
2772330,27723.3,429, , 
2772770,27727.7,384, , 
 , , , 3.125, 3.125
2777215,27772.15,335, , 
2778082,27780.82,393, , 
2778404,27784.04,412, , 
2779048,27790.48,381, , 
2780154,27801.54,326, , 
2781344,27813.44,347, , 
2782046,27820.46,354, , 
2782759,27827.59,345, , 
2783445,27834.45,346, , 
2783766,27837.66,386, , 
 , , , 6.25, 2.5
2784156,27841.56,370, , 
2788405,27884.05,418, , 
2789655,27896.55,353, , 
2789979,27899.79,347, , 
2790888,27908.88,386, , 
2791303,27913.03,399, , 
2791796,27917.96,359, , 
2793418,27934.18,335, , 
 , , , 5.0, 2.5
2796446,27964.46,359, , 
2796945,27969.45,358, , 
2801103,28011.03,350, , 
2802392,28023.92,367, , 
2802701,28027.01,412, , 
2803345,28033.45,409, , 
 , , , 3.75, 4.375
2805971,28059.71,347, , 
2807014,28070.14,343, , 
2808788,28087.88,390, , 
2809166,28091.66,385, , 
2809900,28099.0,377, , 
 , , , 3.125, 5.0
2813862,28138.62,336, , 
2814337,28143.37,341, , 
2814648,28146.48,380, , 
2814897,28148.97,398, , 
2815339,28153.39,419, , 
2818047,28180.47,345, , 
2818961,28189.61,348, , 
2820227,28202.27,416, , 
2821179,28211.79,390, , 
2822151,28221.51,330, , 
 , , , 6.25, 3.125
2824546,28245.46,375, , 
2825856,28258.56,343, , 
2826118,28261.18,392, , 
2826665,28266.65,421, , 
2831319,28313.19,354, , 
 , , , 3.125, 2.5
2832259,28322.59,398, , 
2833066,28330.66,381, , 
2835663,28356.63,362, , 
2837866,28378.66,400, , 
2838290,28382.9,415, , 
2839295,28392.95,346, , 
2841585,28415.85,355, , 
 , , , 4.375, 3.75
2842261,28422.61,355, , 
2842881,28428.81,401, , 
2843366,28433.66,360, , 
2844667,28446.67,330, , 
2845105,28451.05,335, , 
2845409,28454.09,329, , 
2846174,28461.74,377, , 
2847815,28478.15,349, , 
2848503,28485.03,340, , 
2848828,28488.28,371, , 
2849075,28490.75,384, , 
2849696,28496.96,405, , 
 , , , 7.5, 2.5
2852586,28525.86,361, , 
2853147,28531.47,349, , 
2854693,28546.93,415, , 
2855646,28556.46,405, , 
2859885,28598.85,355, , 
2860875,28608.75,382, , 
 , , , 3.75, 3.125
2861111,28611.11,357, , 
2861698,28616.98,418, , 
2867112,28671.12,366, , 
2867672,28676.72,414, , 
2868188,28681.88,383, , 
2870938,28709.38,335, , 
 , , , 3.75, 5.0
2871669,28716.69,359, , 
2871953,28719.53,414, , 
2872705,28727.05,372, , 
2876579,28765.79,436, , 
2877082,28770.82,413, , 
 , , , 3.125, 3.75
2881414,28814.14,372, , 
2881948,28819.48,420, , 
2882664,28826.64,422, , 
2886150,28861.5,363, , 
2886817,28868.17,410, , 
2887461,28874.61,345, , 
2887761,28877.61,377, , 
 , , , 4.375, 4.375
2890160,28901.6,318, , 
2892078,28920.78,434, , 
2892424,28924.24,393, , 
2892786,28927.86,362, , 
2894571,28945.71,348, , 
2896128,28961.28,373, , 
2896483,28964.83,345, , 
2896758,28967.58,395, , 
2897009,28970.09,431, , 
2897622,28976.22,366, , 
2898518,28985.18,343, , 
 , , , 6.875, 3.125
2902554,29025.54,402, , 
2904609,29046.09,350, , 
2905730,29057.3,358, , 
2907324,29073.24,422, , 
2907570,29075.7,368, , 
2908213,29082.13,357, , 
2908403,29084.03,323, , 
 , , , 4.375, 5.0
2909713,29097.13,331, , 
2911635,29116.35,389, , 
2912489,29124.89,368, , 
2913496,29134.96,357, , 
2913939,29139.39,393, , 
2914960,29149.6,424, , 
2915353,29153.53,432, , 
2915652,29156.52,394, , 
2918254,29182.54,378, , 
 , , , 5.625, 6.25
2918862,29188.62,422, , 
2919260,29192.6,399, , 
2919613,29196.13,396, , 
2923818,29238.18,418, , 
2924301,29243.01,387, , 
2927814,29278.14,355, , 
 , , , 3.75, 5.625
2928716,29287.16,388, , 
2928975,29289.75,403, , 
2929416,29294.16,368, , 
2930950,29309.5,325, , 
2932621,29326.21,355, , 
2932945,29329.45,339, , 
2933358,29333.58,344, , 
2933834,29338.34,389, , 
2934441,29344.41,413, , 
2935698,29356.98,347, , 
 , , , 6.25, 5.625
2938703,29387.03,325, , 
2939196,29391.96,354, , 
2940283,29402.83,359, , 
2942806,29428.06,354, , 
2943383,29433.83,356, , 
2944458,29444.58,352, , 
2945444,29454.44,359, , 
2945918,29459.18,355, , 
2947200,29472.0,338, , 
 , , , 5.625, 9.375
2947822,29478.22,331
2948093,29480.93,339
2948727,29487.27,321
2949248,29492.48,355
2950259,29502.59,353
2950650,29506.5,349
2951416,29514.16,331
2951795,29517.95,315
2952749,29527.49,348
2953352,29533.52,339
2953610,29536.1,314
2954409,29544.09,317
2955484,29554.84,344
2956033,29560.33,328
 , , , 7.0, 8.0
