R-PEAK INDEX, TIME, AMPLITUDE
39,0.39,294
127,1.27,237
212,2.12,244
294,2.94,299
377,3.77,340
465,4.65,344
559,5.59,319
656,6.56,299
750,7.5,294
843,8.43,310
937,9.37,309
1037,10.37,321
1139,11.39,288
1240,12.4,270
1339,13.39,290
1436,14.36,318
1531,15.31,278
1629,16.29,328
1730,17.3,237
1824,18.24,270
1914,19.14,295
2000,20.0,283
2085,20.85,315
2182,21.82,343
2275,22.75,253
2368,23.68,314
2452,24.52,329
2529,25.29,296
2607,26.07,295
2687,26.87,350
2768,27.68,316
2852,28.52,290
2936,29.36,309
3017,30.17,266
3100,31.0,321
3189,31.89,315
3289,32.89,337
3382,33.82,311
3470,34.7,261
3556,35.56,288
3641,36.41,288
3728,37.28,342
3817,38.17,312
3908,39.08,296
4000,40.0,291
4088,40.88,260
4185,41.85,328
4285,42.85,288
4379,43.79,279
4465,44.65,257
4547,45.47,273
4631,46.31,303
4718,47.18,305
4806,48.06,275
4894,48.94,333
4986,49.86,320
5076,50.76,265
5166,51.66,287
5258,52.58,300
5348,53.48,329
5438,54.38,349
5529,55.29,346
5620,56.2,322
5708,57.08,292
5796,57.96,295
5889,58.89,324
5979,59.79,319
6066,60.66,340
6157,61.57,309
6246,62.46,335
6334,63.34,321
6423,64.23,344
6507,65.07,323
6590,65.9,306
6673,66.73,306
6765,67.65,336
6853,68.53,289
6938,69.38,331
7022,70.22,319
7109,71.09,309
7193,71.93,321
7277,72.77,275
7363,73.63,339
7445,74.45,256
7525,75.25,305
7605,76.05,334
7689,76.89,334
7773,77.73,288
7855,78.55,307
7933,79.33,323
8012,80.12,338
8096,80.96,311
8182,81.82,348
8274,82.74,267
8360,83.6,262
8441,84.41,335
8521,85.21,288
8602,86.02,321
8687,86.87,345
8775,87.75,298
8860,88.6,289
8942,89.42,300
9019,90.19,269
9093,90.93,338
9164,91.64,313
9234,92.34,242
9312,93.12,306
9395,93.95,329
9484,94.84,316
9571,95.71,295
9655,96.55,313
9738,97.38,304
9821,98.21,285
9904,99.04,318
9984,99.84,283
10063,100.63,347
10141,101.41,294
10228,102.28,263
10313,103.13,287
10401,104.01,317
10481,104.81,298
10560,105.6,281
10647,106.47,324
10739,107.39,279
10827,108.27,329
10912,109.12,295
10995,109.95,277
11080,110.8,266
11172,111.72,306
11266,112.66,347
11355,113.55,306
11440,114.4,255
11522,115.22,309
11605,116.05,277
11691,116.91,261
11775,117.75,330
11856,118.56,326
11937,119.37,287
12027,120.27,344
12119,121.19,308
12206,122.06,270
12289,122.89,280
12377,123.77,295
12469,124.69,347
12562,125.62,285
12654,126.54,302
12743,127.43,293
12835,128.35,335
12929,129.29,310
13020,130.2,273
13107,131.07,271
13195,131.95,293
13286,132.86,332
13377,133.77,255
13463,134.63,245
13542,135.42,330
13616,136.16,335
13689,136.89,337
13770,137.7,344
13869,138.69,343
13960,139.6,333
14045,140.45,277
14123,141.23,328
14198,141.98,292
14273,142.73,307
14360,143.6,324
14448,144.48,320
14534,145.34,339
14618,146.18,321
14699,146.99,285
14776,147.76,295
14850,148.5,310
14923,149.23,350
14999,149.99,319
15079,150.79,332
15159,151.59,297
15237,152.37,278
15316,153.16,304
15393,153.93,254
15468,154.68,256
15541,155.41,287
15612,156.12,261
15681,156.81,279
15748,157.48,247
15815,158.15,242
15884,158.84,297
15955,159.55,238
16027,160.27,321
16097,160.97,270
16167,161.67,325
16241,162.41,312
16325,163.25,302
16414,164.14,320
16502,165.02,318
16592,165.92,309
16683,166.83,322
16773,167.73,306
16862,168.62,308
16951,169.51,303
17042,170.42,316
17126,171.26,296
17205,172.05,278
17281,172.81,295
17354,173.54,273
17427,174.27,308
17499,174.99,309
17571,175.71,305
17644,176.44,290
17720,177.2,286
17796,177.96,294
17874,178.74,317
17952,179.52,344
18029,180.29,358
18103,181.03,329
18178,181.78,320
18259,182.59,369
18343,183.43,357
18426,184.26,288
18505,185.05,286
18583,185.83,291
18660,186.6,301
18736,187.36,296
18811,188.11,290
18885,188.85,288
18958,189.58,268
19031,190.31,278
19103,191.03,276
19175,191.75,269
19246,192.46,278
19316,193.16,281
19384,193.84,232
19450,194.5,242
19516,195.16,268
19580,195.8,284
19643,196.43,257
19706,197.06,284
19768,197.68,257
19828,198.28,220
19889,198.89,281
19950,199.5,265
20014,200.14,253
20086,200.86,286
20164,201.64,240
20242,202.42,287
20317,203.17,247
20394,203.94,282
20472,204.72,243
20552,205.52,241
20631,206.31,241
20711,207.11,291
20789,207.89,293
20867,208.67,259
20951,209.51,263
21034,210.34,305
21114,211.14,316
21197,211.97,270
21280,212.8,302
21359,213.59,311
21436,214.36,317
21516,215.16,298
21598,215.98,307
21681,216.81,288
21757,217.57,287
21828,218.28,239
21899,218.99,310
21968,219.68,287
22040,220.4,320
22115,221.15,330
22195,221.95,339
22272,222.72,289
22353,223.53,330
22436,224.36,281
22519,225.19,292
22597,225.97,289
22672,226.72,278
22747,227.47,261
22819,228.19,221
22890,228.9,234
22958,229.58,245
23027,230.27,231
23096,230.96,295
23168,231.68,311
23245,232.45,300
23327,233.27,293
23407,234.07,275
23484,234.84,284
23560,235.6,294
23634,236.34,246
23710,237.1,281
23786,237.86,281
23862,238.62,306
23939,239.39,258
24019,240.19,327
24099,240.99,294
24179,241.79,252
24259,242.59,318
24338,243.38,260
24419,244.19,327
24500,245.0,247
24579,245.79,306
24659,246.59,265
24737,247.37,265
24817,248.17,243
24892,248.92,292
24964,249.64,180
24992,249.92,113
25036,250.36,205
25109,251.09,239
25179,251.79,248
25253,252.53,294
25328,253.28,239
25406,254.06,278
25486,254.86,277
25564,255.64,236
25644,256.44,250
25721,257.21,303
25799,257.99,316
25877,258.77,279
25956,259.56,310
26035,260.35,283
26113,261.13,257
26194,261.94,297
26276,262.76,254
26356,263.56,254
26436,264.36,264
26516,265.16,246
26595,265.95,230
26672,266.72,280
26747,267.47,304
26822,268.22,320
26902,269.02,273
26984,269.84,249
27070,270.7,293
27149,271.49,296
27224,272.24,255
27296,272.96,230
27369,273.69,296
27438,274.38,266
27508,275.08,238
27588,275.88,319
27669,276.69,308
27754,277.54,338
27846,278.46,305
27938,279.38,268
28024,280.24,288
28103,281.03,271
28179,281.79,274
28254,282.54,327
28330,283.3,340
28408,284.08,279
28492,284.92,310
28575,285.75,246
28657,286.57,252
28735,287.35,329
28813,288.13,305
28894,288.94,303
28977,289.77,267
29063,290.63,294
29153,291.53,248
29239,292.39,223
29322,293.22,281
29400,294.0,269
29477,294.77,282
29556,295.56,264
29639,296.39,286
29726,297.26,258
29812,298.12,270
29895,298.95,290
29979,299.79,247
30062,300.62,286
30144,301.44,297
30228,302.28,309
30317,303.17,262
30408,304.08,276
30498,304.98,285
30584,305.84,311
30666,306.66,315
30749,307.49,342
30834,308.34,339
30920,309.2,328
31007,310.07,306
31096,310.96,270
31180,311.8,302
31261,312.61,279
31341,313.41,337
31420,314.2,291
31502,315.02,308
31582,315.82,304
31662,316.62,299
31737,317.37,226
31811,318.11,275
31883,318.83,292
31953,319.53,238
32022,320.22,274
32091,320.91,329
32161,321.61,264
32236,322.36,280
32319,323.19,342
32406,324.06,309
32490,324.9,228
32572,325.72,246
32653,326.53,306
32733,327.33,285
32815,328.15,334
32900,329.0,317
32986,329.86,257
33069,330.69,271
33151,331.51,266
33231,332.31,301
33316,333.16,277
33408,334.08,339
33503,335.03,289
33594,335.94,284
33678,336.78,305
33760,337.6,325
33843,338.43,283
33928,339.28,314
34016,340.16,310
34105,341.05,280
34188,341.88,234
34270,342.7,235
34354,343.54,279
34443,344.43,294
34535,345.35,289
34625,346.25,257
34715,347.15,287
34805,348.05,244
34891,348.91,287
34978,349.78,318
35067,350.67,342
35152,351.52,274
35235,352.35,323
35312,353.12,308
35386,353.86,359
35463,354.63,338
35548,355.48,296
35635,356.35,243
35716,357.16,245
35796,357.96,323
35875,358.75,352
35955,359.55,300
36040,360.4,273
36124,361.24,291
36209,362.09,271
36297,362.97,248
36383,363.83,269
36471,364.71,282
36555,365.55,280
36639,366.39,223
36721,367.21,212
36805,368.05,237
36886,368.86,247
36965,369.65,255
37040,370.4,311
37113,371.13,326
37185,371.85,345
37262,372.62,328
37351,373.51,276
37441,374.41,296
37527,375.27,270
37608,376.08,315
37688,376.88,285
37769,377.69,282
37849,378.49,293
37928,379.28,256
38006,380.06,259
38083,380.83,319
38163,381.63,342
38242,382.42,279
38325,383.25,343
38410,384.1,333
38495,384.95,331
38578,385.78,262
38660,386.6,305
38741,387.41,329
38820,388.2,336
38895,388.95,306
38969,389.69,255
39045,390.45,247
39121,391.21,230
39200,392.0,243
39279,392.79,314
39359,393.59,276
39440,394.4,238
39518,395.18,301
39597,395.97,324
39677,396.77,359
39752,397.52,291
39827,398.27,295
39903,399.03,261
39980,399.8,265
40060,400.6,314
40141,401.41,251
40221,402.21,317
40304,403.04,331
40389,403.89,254
40478,404.78,238
40564,405.64,306
40649,406.49,325
40734,407.34,333
40827,408.27,335
40923,409.23,323
41015,410.15,264
41104,411.04,321
41189,411.89,283
41270,412.7,314
41350,413.5,284
41428,414.28,251
41508,415.08,317
41588,415.88,254
41669,416.69,308
41697,416.97,141
41748,417.48,338
41831,418.31,354
41917,419.17,339
42001,420.01,269
42083,420.83,295
42163,421.63,348
42243,422.43,346
42318,423.18,271
42393,423.93,267
42469,424.69,324
42546,425.46,286
42627,426.27,286
42711,427.11,292
42790,427.9,306
42868,428.68,299
42944,429.44,287
43019,430.19,244
43090,430.9,248
43161,431.61,306
43230,432.3,314
43298,432.98,323
43365,433.65,295
43432,434.32,284
43497,434.97,267
43562,435.62,297
43627,436.27,300
43692,436.92,234
43758,437.58,246
43824,438.24,269
43896,438.96,245
43969,439.69,262
44041,440.41,211
44114,441.14,228
44186,441.86,301
44256,442.56,311
44325,443.25,312
44393,443.93,325
44461,444.61,318
44529,445.29,315
44599,445.99,325
44672,446.72,303
44744,447.44,285
44815,448.15,289
44886,448.86,281
44957,449.57,250
45031,450.31,305
45107,451.07,314
45183,451.83,271
45258,452.58,301
45333,453.33,218
45407,454.07,225
45483,454.83,311
45560,455.6,321
45636,456.36,278
45715,457.15,325
45791,457.91,266
45867,458.67,273
45941,459.41,266
46014,460.14,283
46086,460.86,267
46157,461.57,290
46230,462.3,293
46305,463.05,258
46381,463.81,327
46458,464.58,376
46478,464.78,135
46486,464.86,171
46534,465.34,295
46562,465.62,111
46609,466.09,296
46682,466.82,286
46754,467.54,268
46825,468.25,288
46896,468.96,319
46968,469.68,326
47039,470.39,252
47109,471.09,309
47180,471.8,334
47249,472.49,319
47318,473.18,273
47387,473.87,294
47455,474.55,300
47524,475.24,323
47593,475.93,295
47661,476.61,318
47729,477.29,302
47796,477.96,253
47862,478.62,243
47928,479.28,272
47994,479.94,260
48060,480.6,324
48125,481.25,297
48189,481.89,227
48254,482.54,242
48317,483.17,271
48381,483.81,222
48444,484.44,246
48509,485.09,231
48576,485.76,240
48643,486.43,263
48710,487.1,204
48778,487.78,207
48846,488.46,161
48915,489.15,230
48982,489.82,153
49050,490.5,208
49116,491.16,243
49182,491.82,239
49247,492.47,298
49312,493.12,234
49382,493.82,299
49458,494.58,299
49533,495.33,235
49606,496.06,238
49678,496.78,317
49752,497.52,326
49795,497.95,107
49826,498.26,246
49898,498.98,213
49969,499.69,258
50041,500.41,311
50113,501.13,314
50184,501.84,243
50256,502.56,245
50326,503.26,224
50395,503.95,199
50464,504.64,286
50531,505.31,317
50597,505.97,357
50662,506.62,303
50727,507.27,330
50791,507.91,290
50854,508.54,289
50917,509.17,310
50980,509.8,291
51043,510.43,223
51107,511.07,255
51171,511.71,207
51240,512.4,234
51311,513.11,238
51385,513.85,222
51461,514.61,237
51536,515.36,271
51610,516.1,249
51683,516.83,249
51758,517.58,294
51834,518.34,260
51909,519.09,226
51982,519.82,270
52052,520.52,240
52121,521.21,243
52188,521.88,263
52254,522.54,239
52321,523.21,297
52390,523.9,250
52467,524.67,238
52545,525.45,228
52627,526.27,232
52710,527.1,221
52792,527.92,231
52872,528.72,222
52950,529.5,250
53028,530.28,316
53107,531.07,328
53186,531.86,290
53273,532.73,278
53363,533.63,244
53451,534.51,232
53538,535.38,224
53622,536.22,197
53703,537.03,232
53783,537.83,260
53859,538.59,325
53936,539.36,319
54023,540.23,285
54117,541.17,331
54216,542.16,221
54305,543.05,234
54391,543.91,305
54478,544.78,303
54572,545.72,318
54666,546.66,276
54763,547.63,285
54858,548.58,264
54947,549.47,251
55037,550.37,304
55126,551.26,298
55209,552.09,213
55289,552.89,242
55364,553.64,315
55439,554.39,345
55517,555.17,311
55595,555.95,299
55669,556.69,281
55741,557.41,269
55811,558.11,299
55881,558.81,324
55955,559.55,305
56034,560.34,262
56115,561.15,305
56194,561.94,272
56272,562.72,257
56350,563.5,317
56429,564.29,264
56512,565.12,309
56596,565.96,211
56679,566.79,231
56758,567.58,306
56836,568.36,252
56916,569.16,322
56999,569.99,278
57080,570.8,273
57157,571.57,254
57231,572.31,244
57305,573.05,313
57378,573.78,269
57456,574.56,284
57543,575.43,229
57625,576.25,277
57705,577.05,305
57789,577.89,334
57874,578.74,272
57955,579.55,247
58036,580.36,271
58118,581.18,332
58203,582.03,293
58291,582.91,287
58378,583.78,268
58462,584.62,276
58546,585.46,327
58633,586.33,316
58719,587.19,259
58805,588.05,249
58889,588.89,246
58968,589.68,297
59043,590.43,318
59118,591.18,354
59199,591.99,322
59292,592.92,264
59375,593.75,284
59453,594.53,334
59529,595.29,274
59608,596.08,327
59686,596.86,292
59763,597.63,235
59841,598.41,317
59922,599.22,334
60007,600.07,289
60091,600.91,289
60179,601.79,315
60268,602.68,227
60355,603.55,259
60442,604.42,306
60527,605.27,241
60613,606.13,244
60697,606.97,304
60785,607.85,349
60884,608.84,269
60979,609.79,248
61071,610.71,315
61159,611.59,289
61239,612.39,329
61315,613.15,299
61391,613.91,294
61470,614.7,289
61552,615.52,279
61630,616.3,298
61707,617.07,307
61784,617.84,277
61869,618.69,342
61958,619.58,260
62044,620.44,257
62128,621.28,302
62213,622.13,332
62304,623.04,322
62404,624.04,299
62502,625.02,235
62602,626.02,315
62700,627.0,288
62792,627.92,228
62885,628.85,273
62977,629.77,277
63062,630.62,228
63142,631.42,312
63221,632.21,313
63305,633.05,291
63396,633.96,305
63486,634.86,223
63570,635.7,308
63660,636.6,314
63748,637.48,307
63833,638.33,231
63916,639.16,235
64004,640.04,310
64093,640.93,265
64178,641.78,311
64266,642.66,345
64363,643.63,338
64461,644.61,291
64550,645.5,295
64634,646.34,288
64725,647.25,262
64812,648.12,319
64895,648.95,242
64976,649.76,261
65059,650.59,329
65150,651.5,312
65239,652.39,240
65325,653.25,289
65411,654.11,338
65507,655.07,315
65600,656.0,231
65682,656.82,280
65758,657.58,254
65833,658.33,323
65905,659.05,338
65977,659.77,276
66052,660.52,280
66125,661.25,230
66195,661.95,244
66266,662.66,269
66338,663.38,270
66420,664.2,343
66514,665.14,314
66608,666.08,280
66703,667.03,319
66802,668.02,263
66900,669.0,292
66997,669.97,306
67092,670.92,231
67186,671.86,260
67283,672.83,249
67374,673.74,234
67459,674.59,250
67541,675.41,300
67631,676.31,301
67724,677.24,283
67813,678.13,269
67898,678.98,260
67988,679.88,286
68076,680.76,277
68165,681.65,330
68253,682.53,296
68339,683.39,219
68424,684.24,250
68518,685.18,269
68614,686.14,232
68706,687.06,281
68803,688.03,334
68905,689.05,289
68992,689.92,275
69070,690.7,314
69145,691.45,297
69221,692.21,312
69302,693.02,315
69380,693.8,254
69456,694.56,251
69531,695.31,311
69609,696.09,323
69698,696.98,285
69788,697.88,294
69885,698.85,340
69984,699.84,231
70074,700.74,242
70166,701.66,279
70267,702.67,317
70370,703.7,270
70469,704.69,282
70563,705.63,278
70655,706.55,303
70748,707.48,244
70840,708.4,235
70928,709.28,243
71012,710.12,284
71100,711.0,321
71193,711.93,225
71284,712.84,236
71368,713.68,244
71455,714.55,364
71548,715.48,262
71639,716.39,273
71728,717.28,346
71811,718.11,220
71892,718.92,304
71974,719.74,345
72058,720.58,296
72141,721.41,302
72244,722.44,335
72353,723.53,328
72450,724.5,241
72541,725.41,283
72624,726.24,319
72713,727.13,286
72808,728.08,306
72904,729.04,280
72996,729.96,238
73088,730.88,342
73185,731.85,252
73274,732.74,292
73366,733.66,288
73454,734.54,274
73549,735.49,349
73642,736.42,244
73743,737.43,301
73834,738.34,252
73919,739.19,273
74009,740.09,342
74105,741.05,267
74202,742.02,279
74293,742.93,280
74380,743.8,278
74479,744.79,280
74577,745.77,261
74664,746.64,269
74754,747.54,303
74848,748.48,235
74942,749.42,243
75032,750.32,324
75129,751.29,305
75220,752.2,291
75304,753.04,242
75391,753.91,344
75496,754.96,271
75581,755.81,251
75661,756.61,344
75744,757.44,375
75835,758.35,259
75923,759.23,235
76008,760.08,336
76090,760.9,317
76172,761.72,247
76249,762.49,253
76326,763.26,346
76406,764.06,341
76494,764.94,278
76578,765.78,259
76664,766.64,319
76756,767.56,320
76847,768.47,268
76933,769.33,292
77026,770.26,257
77113,771.13,218
77199,771.99,268
77290,772.9,310
77378,773.78,263
77464,774.64,301
77559,775.59,318
77657,776.57,270
77749,777.49,245
77838,778.38,282
77939,779.39,309
78037,780.37,228
78130,781.3,271
78220,782.2,303
78299,782.99,299
78376,783.76,348
78453,784.53,351
78529,785.29,307
78603,786.03,284
78673,786.73,277
78745,787.45,351
78828,788.28,366
78945,789.45,362
79042,790.42,254
79128,791.28,291
79210,792.1,350
79295,792.95,358
79385,793.85,311
79474,794.74,249
79563,795.63,255
79654,796.54,305
79756,797.56,337
79858,798.58,251
79957,799.57,251
80055,800.55,291
80157,801.57,291
80253,802.53,264
80352,803.52,254
80447,804.47,219
80540,805.4,284
80631,806.31,292
80725,807.25,245
80815,808.15,221
80901,809.01,235
80993,809.93,323
81085,810.85,248
81174,811.74,304
81266,812.66,283
81350,813.5,318
81436,814.36,294
81520,815.2,375
81616,816.16,332
81710,817.1,279
81798,817.98,331
81888,818.88,367
81974,819.74,268
82054,820.54,319
82137,821.37,349
82230,822.3,343
82328,823.28,266
82421,824.21,311
82517,825.17,348
82611,826.11,281
82701,827.01,299
82791,827.91,334
82887,828.87,248
82984,829.84,263
83076,830.76,297
83174,831.74,305
83271,832.71,240
83367,833.67,264
83467,834.67,291
83571,835.71,273
83666,836.66,283
83764,837.64,308
83870,838.7,256
83957,839.57,296
84037,840.37,351
84125,841.25,380
84232,842.32,290
84322,843.22,321
84402,844.02,299
84484,844.84,385
84573,845.73,274
84658,846.58,248
84743,847.43,325
84829,848.29,314
84918,849.18,293
85008,850.08,275
85098,850.98,250
85186,851.86,259
85281,852.81,318
85375,853.75,288
85463,854.63,240
85554,855.54,318
85646,856.46,282
85740,857.4,225
85829,858.29,231
85920,859.2,298
86016,860.16,309
86107,861.07,228
86197,861.97,290
86298,862.98,345
86398,863.98,288
86492,864.92,266
86585,865.85,290
86700,867.0,270
86805,868.05,222
86891,868.91,305
86969,869.69,357
87044,870.44,344
87124,871.24,317
87211,872.11,352
87293,872.93,345
87371,873.71,286
87446,874.46,322
87518,875.18,290
87589,875.89,271
87661,876.61,270
87735,877.35,319
87811,878.11,331
87896,878.96,305
87989,879.89,312
88079,880.79,277
88172,881.72,347
88274,882.74,315
88367,883.67,289
88458,884.58,274
88557,885.57,306
88650,886.5,225
88740,887.4,242
88831,888.31,325
88923,889.23,279
89011,890.11,277
89098,890.98,291
89187,891.87,255
89273,892.73,311
89361,893.61,255
89453,894.53,222
89540,895.4,274
89627,896.27,304
89725,897.25,336
89823,898.23,220
89916,899.16,260
90009,900.09,290
90110,901.1,264
90208,902.08,278
90304,903.04,362
90414,904.14,291
90507,905.07,296
90589,905.89,340
90668,906.68,395
90762,907.62,351
90865,908.65,264
90950,909.5,324
91031,910.31,350
91111,911.11,314
91192,911.92,221
91273,912.73,234
91355,913.55,360
91445,914.45,347
91535,915.35,232
91626,916.26,283
91721,917.21,300
91822,918.22,294
91914,919.14,236
92005,920.05,309
92104,921.04,271
92202,922.02,253
92297,922.97,244
92406,924.06,272
92513,925.13,277
92623,926.23,259
92710,927.1,299
92790,927.9,357
92872,928.72,335
92969,929.69,324
93057,930.57,283
93137,931.37,282
93218,932.18,367
93303,933.03,250
93389,933.89,316
93478,934.78,295
93564,935.64,231
93655,936.55,300
93748,937.48,264
93837,938.37,263
93932,939.32,285
94047,940.47,269
94150,941.5,290
94246,942.46,271
94338,943.38,342
94442,944.42,309
94545,945.45,253
94637,946.37,254
94727,947.27,364
94818,948.18,280
94907,949.07,289
94999,949.99,311
95098,950.98,336
95196,951.96,225
95291,952.91,243
95389,953.89,345
95493,954.93,282
95587,955.87,227
95678,956.78,350
95787,957.87,279
95887,958.87,286
95971,959.71,286
96050,960.5,373
96133,961.33,333
96233,962.33,274
96316,963.16,279
96397,963.97,384
96483,964.83,292
96571,965.71,241
96654,966.54,293
96738,967.38,337
96825,968.25,286
96911,969.11,241
96997,969.97,338
97086,970.86,277
97180,971.8,243
97277,972.77,310
97369,973.69,270
97460,974.6,256
97548,975.48,244
97639,976.39,317
97737,977.37,265
97831,978.31,213
97919,979.19,257
98009,980.09,330
98103,981.03,312
98195,981.95,209
98283,982.83,249
98371,983.71,347
98461,984.61,284
98546,985.46,252
98635,986.35,335
98745,987.45,306
98847,988.47,302
98930,989.3,316
99008,990.08,359
99083,990.83,390
99156,991.56,285
99227,992.27,326
99298,992.98,352
99370,993.7,298
99446,994.46,335
99525,995.25,313
99606,996.06,297
99693,996.93,302
99791,997.91,306
99879,998.79,255
99971,999.71,302
100066,1000.66,238
100159,1001.59,302
100254,1002.54,336
100350,1003.5,271
100442,1004.42,272
100531,1005.31,321
100623,1006.23,284
100715,1007.15,264
100802,1008.02,221
100890,1008.9,280
100978,1009.78,272
101067,1010.67,272
101155,1011.55,293
101247,1012.47,346
101339,1013.39,246
101431,1014.31,228
101522,1015.22,305
101621,1016.21,344
101722,1017.22,255
101823,1018.23,221
101931,1019.31,351
102041,1020.41,273
102143,1021.43,268
102238,1022.38,257
102343,1023.43,345
102447,1024.47,219
102541,1025.41,260
102622,1026.22,353
102698,1026.98,340
102772,1027.72,369
102859,1028.59,329
102945,1029.45,352
103026,1030.26,322
103107,1031.07,311
103192,1031.92,309
103283,1032.83,264
103369,1033.69,308
103454,1034.54,365
103541,1035.41,294
103627,1036.27,308
103723,1037.23,313
103823,1038.23,274
103915,1039.15,274
104004,1040.04,286
104097,1040.97,299
104188,1041.88,273
104278,1042.78,330
104372,1043.72,272
104466,1044.66,274
104557,1045.57,224
104645,1046.45,302
104741,1047.41,272
104835,1048.35,272
104923,1049.23,233
105016,1050.16,322
105113,1051.13,266
105206,1052.06,241
105300,1053.0,304
105399,1053.99,300
105499,1054.99,270
105599,1055.99,232
105600,1056.0,165
105688,1056.88,321
105768,1057.68,350
105853,1058.53,318
105952,1059.52,262
106046,1060.46,248
106135,1061.35,315
106229,1062.29,361
106322,1063.22,249
106407,1064.07,334
106499,1064.99,303
106594,1065.94,290
106683,1066.83,289
106779,1067.79,355
106887,1068.87,330
106988,1069.88,225
107087,1070.87,276
107184,1071.84,304
107289,1072.89,241
107385,1073.85,268
107475,1074.75,351
107569,1075.69,317
107660,1076.6,220
107749,1077.49,295
107842,1078.42,356
107934,1079.34,259
108021,1080.21,215
108107,1081.07,347
108211,1082.11,378
108307,1083.07,277
108390,1083.9,292
108467,1084.67,317
108544,1085.44,359
108623,1086.23,362
108698,1086.98,309
108770,1087.7,339
108841,1088.41,361
108912,1089.12,299
108989,1089.89,359
109067,1090.67,299
109147,1091.47,285
109231,1092.31,345
109325,1093.25,293
109418,1094.18,238
109506,1095.06,291
109595,1095.95,289
109691,1096.91,339
109786,1097.86,222
109878,1098.78,313
109968,1099.68,282
110059,1100.59,280
110148,1101.48,314
110241,1102.41,321
110334,1103.34,276
110423,1104.23,259
110512,1105.12,274
110606,1106.06,305
110697,1106.97,270
110784,1107.84,254
110872,1108.72,290
110964,1109.64,246
111054,1110.54,239
111150,1111.5,299
111256,1112.56,301
111348,1113.48,209
111433,1114.33,231
111520,1115.2,337
111612,1116.12,314
111704,1117.04,265
111792,1117.92,246
111879,1118.79,356
111970,1119.7,352
112062,1120.62,253
112153,1121.53,278
112241,1122.41,336
112347,1123.47,286
112444,1124.44,260
112526,1125.26,315
112603,1126.03,377
112680,1126.8,385
112765,1127.65,344
112847,1128.47,250
112924,1129.24,291
113000,1130.0,315
113075,1130.75,289
113155,1131.55,260
113235,1132.35,286
113316,1133.16,295
113411,1134.11,342
113505,1135.05,281
113599,1135.99,329
113707,1137.07,348
113811,1138.11,259
113911,1139.11,277
114017,1140.17,284
114119,1141.19,271
114212,1142.12,258
114303,1143.03,367
114400,1144.0,310
114497,1144.97,248
114588,1145.88,279
114676,1146.76,335
114774,1147.74,341
114873,1148.73,269
114965,1149.65,251
115058,1150.58,316
115163,1151.63,317
115261,1152.61,244
115353,1153.53,236
115449,1154.49,312
115549,1155.49,257
115645,1156.45,221
115742,1157.42,318
115852,1158.52,290
115951,1159.51,228
116045,1160.45,240
116148,1161.48,353
116244,1162.44,261
116335,1163.35,291
116415,1164.15,298
116491,1164.91,368
116568,1165.68,360
116652,1166.52,297
116734,1167.34,358
116816,1168.16,348
116904,1169.04,324
116998,1169.98,265
117083,1170.83,287
117165,1171.65,295
117254,1172.54,300
117345,1173.45,300
117433,1174.33,288
117524,1175.24,322
117622,1176.22,288
117716,1177.16,282
117811,1178.11,347
117914,1179.14,326
118016,1180.16,270
118108,1181.08,227
118202,1182.02,292
118300,1183.0,309
118398,1183.98,270
118489,1184.89,274
118575,1185.75,311
118666,1186.66,326
118760,1187.6,261
118848,1188.48,286
118935,1189.35,298
119027,1190.27,301
119118,1191.18,280
119205,1192.05,293
119307,1193.07,380
119419,1194.19,239
119521,1195.21,283
119611,1196.11,335
119692,1196.92,327
119776,1197.76,383
119863,1198.63,272
119945,1199.45,346
120023,1200.23,326
120104,1201.04,379
120192,1201.92,332
120283,1202.83,262
120367,1203.67,289
120454,1204.54,298
120548,1205.48,303
120640,1206.4,241
120728,1207.28,278
120822,1208.22,320
120914,1209.14,280
121006,1210.06,300
121100,1211.0,306
121199,1211.99,270
121301,1213.01,246
121401,1214.01,255
121502,1215.02,291
121608,1216.08,269
121710,1217.1,260
121805,1218.05,238
121903,1219.03,350
122007,1220.07,313
122116,1221.16,222
122211,1222.11,233
122295,1222.95,304
122378,1223.78,370
122475,1224.75,339
122573,1225.73,249
122663,1226.63,296
122753,1227.53,358
122853,1228.53,345
122946,1229.46,289
123033,1230.33,320
123126,1231.26,346
123223,1232.23,295
123313,1233.13,229
123406,1234.06,291
123500,1235.0,328
123590,1235.9,254
123678,1236.78,289
123771,1237.71,347
123869,1238.69,273
123965,1239.65,234
124057,1240.57,282
124155,1241.55,357
124254,1242.54,288
124348,1243.48,215
124436,1244.36,284
124537,1245.37,361
124632,1246.32,277
124716,1247.16,316
124795,1247.95,393
124876,1248.76,306
124956,1249.56,273
125033,1250.33,303
125112,1251.12,333
125195,1251.95,329
125283,1252.83,345
125369,1253.69,245
125451,1254.51,269
125534,1255.34,317
125624,1256.24,283
125714,1257.14,236
125802,1258.02,305
125894,1258.94,348
125992,1259.92,275
126082,1260.82,268
126176,1261.76,342
126277,1262.77,299
126379,1263.79,272
126475,1264.75,243
126573,1265.73,348
126676,1266.76,311
126773,1267.73,264
126861,1268.61,241
126950,1269.5,350
127047,1270.47,298
127141,1271.41,211
127234,1272.34,266
127327,1273.27,325
127432,1274.32,313
127529,1275.29,262
127621,1276.21,222
127715,1277.15,310
127817,1278.17,311
127908,1279.08,224
127996,1279.96,240
128090,1280.9,364
128195,1281.95,300
128291,1282.91,244
128383,1283.83,353
128491,1284.91,371
128595,1285.95,257
128678,1286.78,319
128755,1287.55,378
128829,1288.29,375
128908,1289.08,341
128991,1289.91,335
129065,1290.65,306
129138,1291.38,326
129214,1292.14,310
129294,1292.94,249
129373,1293.73,289
129454,1294.54,339
129541,1295.41,271
129627,1296.27,255
129709,1297.09,273
129792,1297.92,333
129879,1298.79,292
129971,1299.71,272
130058,1300.58,287
130149,1301.49,330
130246,1302.46,235
130342,1303.42,303
130438,1304.38,271
130530,1305.3,273
130618,1306.18,310
130710,1307.1,315
130806,1308.06,228
130898,1308.98,276
130987,1309.87,312
131078,1310.78,320
131169,1311.69,282
131256,1312.56,254
131339,1313.39,234
131431,1314.31,350
131531,1315.31,259
131625,1316.25,273
131720,1317.2,349
131829,1318.29,340
131930,1319.3,231
132022,1320.22,248
132105,1321.05,314
132184,1321.84,392
132269,1322.69,337
132379,1323.79,306
132469,1324.69,268
132554,1325.54,292
132635,1326.35,365
132718,1327.18,392
132836,1328.36,332
132944,1329.44,264
133041,1330.41,302
133145,1331.45,313
133253,1332.53,250
133356,1333.56,236
133456,1334.56,350
133564,1335.64,296
133667,1336.67,278
133762,1337.62,232
133855,1338.55,318
133949,1339.49,239
134040,1340.4,255
134128,1341.28,304
134230,1342.3,302
134328,1343.28,225
134421,1344.21,282
134518,1345.18,357
134614,1346.14,347
134713,1347.13,204
134806,1348.06,246
134897,1348.97,361
134995,1349.95,337
135085,1350.85,310
135165,1351.65,290
135244,1352.44,391
135327,1353.27,357
135419,1354.19,246
135499,1354.99,325
135576,1355.76,341
135655,1356.55,352
135738,1357.38,285
135821,1358.21,269
135904,1359.04,292
135996,1359.96,333
136091,1360.91,282
136179,1361.79,281
136270,1362.7,324
136368,1363.68,264
136461,1364.61,220
136550,1365.5,313
136641,1366.41,307
136743,1367.43,272
136842,1368.42,272
136936,1369.36,280
137028,1370.28,342
137128,1371.28,271
137223,1372.23,281
137313,1373.13,239
137399,1373.99,305
137491,1374.91,294
137592,1375.92,225
137686,1376.86,270
137778,1377.78,339
137886,1378.86,336
137987,1379.87,263
138083,1380.83,289
138184,1381.84,333
138287,1382.87,229
138385,1383.85,272
138480,1384.8,356
138585,1385.85,251
138683,1386.83,220
138784,1387.84,353
138885,1388.85,296
138969,1389.69,326
139047,1390.47,335
139128,1391.28,333
139222,1392.22,275
139304,1393.04,332
139384,1393.84,368
139464,1394.64,304
139545,1395.45,280
139625,1396.25,276
139706,1397.06,376
139794,1397.94,337
139882,1398.82,238
139969,1399.69,291
140065,1400.65,353
140169,1401.69,230
140267,1402.67,265
140365,1403.65,344
140468,1404.68,280
140563,1405.63,287
140660,1406.6,291
140760,1407.6,222
140849,1408.49,271
140937,1409.37,327
141031,1410.31,287
141121,1411.21,278
141209,1412.09,319
141306,1413.06,337
141411,1414.11,260
141507,1415.07,221
141599,1415.99,258
141700,1417.0,341
141809,1418.09,247
141908,1419.08,221
142003,1420.03,341
142109,1421.09,343
142210,1422.1,236
142304,1423.04,310
142405,1424.05,324
142504,1425.04,248
142598,1425.98,269
142697,1426.97,393
142797,1427.97,277
142906,1429.06,285
142990,1429.9,331
143070,1430.7,372
143158,1431.58,293
143242,1432.42,338
143322,1433.22,358
143400,1434.0,359
143479,1434.79,292
143557,1435.57,280
143637,1436.37,417
143729,1437.29,333
143824,1438.24,302
143909,1439.09,258
143989,1439.89,284
144069,1440.69,312
144152,1441.52,293
144241,1442.41,276
144325,1443.25,269
144408,1444.08,289
144496,1444.96,324
144586,1445.86,312
144674,1446.74,274
144760,1447.6,272
144849,1448.49,325
144943,1449.43,311
145037,1450.37,268
145127,1451.27,285
145219,1452.19,269
145317,1453.17,275
145410,1454.1,272
145498,1454.98,268
145591,1455.91,286
145687,1456.87,259
145775,1457.75,240
145863,1458.63,306
145962,1459.62,300
146063,1460.63,291
146159,1461.59,219
146249,1462.49,265
146347,1463.47,321
146455,1464.55,284
146555,1465.55,267
146649,1466.49,304
146755,1467.55,332
146860,1468.6,245
146959,1469.59,267
147060,1470.6,367
147165,1471.65,295
147266,1472.66,257
147358,1473.58,292
147457,1474.57,368
147552,1475.52,233
147646,1476.46,240
147728,1477.28,284
147807,1478.07,344
147894,1478.94,315
147979,1479.79,284
148058,1480.58,336
148140,1481.4,316
148225,1482.25,320
148306,1483.06,248
148386,1483.86,360
148465,1484.65,359
148547,1485.47,304
148629,1486.29,288
148713,1487.13,295
148808,1488.08,326
148911,1489.11,254
149006,1490.06,301
149110,1491.1,326
149214,1492.14,258
149314,1493.14,309
149425,1494.25,324
149530,1495.3,228
149625,1496.25,245
149723,1497.23,283
149825,1498.25,308
149921,1499.21,254
150010,1500.1,273
150101,1501.01,337
150192,1501.92,287
150279,1502.79,236
150366,1503.66,336
150466,1504.66,336
150560,1505.6,281
150652,1506.52,281
150751,1507.51,322
150854,1508.54,264
150954,1509.54,277
151053,1510.53,353
151165,1511.65,338
151266,1512.66,263
151362,1513.62,256
151459,1514.59,351
151555,1515.55,279
151652,1516.52,228
151742,1517.42,372
151826,1518.26,347
151905,1519.05,294
151982,1519.82,363
152066,1520.66,359
152166,1521.66,273
152250,1522.5,312
152330,1523.3,332
152409,1524.09,349
152493,1524.93,290
152573,1525.73,304
152654,1526.54,346
152743,1527.43,362
152843,1528.43,275
152936,1529.36,293
153031,1530.31,315
153139,1531.39,293
153242,1532.42,244
153337,1533.37,293
153433,1534.33,335
153540,1535.4,244
153638,1536.38,225
153734,1537.34,301
153836,1538.36,332
153935,1539.35,221
154032,1540.32,250
154128,1541.28,318
154229,1542.29,337
154324,1543.24,276
154413,1544.13,228
154500,1545.0,345
154591,1545.91,287
154688,1546.88,249
154778,1547.78,267
154865,1548.65,312
154956,1549.56,338
155053,1550.53,225
155148,1551.48,273
155244,1552.44,344
155356,1553.56,297
155462,1554.62,258
155559,1555.59,262
155663,1556.63,331
155770,1557.7,230
155868,1558.68,258
155989,1559.89,324
156092,1560.92,289
156177,1561.77,283
156256,1562.56,341
156333,1563.33,356
156421,1564.21,354
156505,1565.05,276
156584,1565.84,298
156665,1566.65,381
156752,1567.52,346
156835,1568.35,234
156917,1569.17,269
157002,1570.02,295
157091,1570.91,313
157177,1571.77,270
157263,1572.63,291
157360,1573.6,322
157464,1574.64,244
157560,1575.6,313
157657,1576.57,271
157756,1577.56,293
157851,1578.51,264
157952,1579.52,325
158056,1580.56,292
158161,1581.61,296
158259,1582.59,264
158350,1583.5,274
158442,1584.42,335
158537,1585.37,280
158626,1586.26,223
158715,1587.15,256
158805,1588.05,290
158905,1589.05,284
159000,1590.0,235
159092,1590.92,231
159180,1591.8,287
159278,1592.78,317
159379,1593.79,258
159470,1594.7,274
159562,1595.62,363
159674,1596.74,348
159776,1597.76,268
159872,1598.72,241
159980,1599.8,351
160083,1600.83,219
160177,1601.77,270
160270,1602.7,319
160365,1603.65,269
160452,1604.52,352
160530,1605.3,330
160611,1606.11,383
160701,1607.01,311
160783,1607.83,289
160866,1608.66,318
160956,1609.56,329
161040,1610.4,284
161120,1611.2,328
161201,1612.01,355
161291,1612.91,314
161380,1613.8,260
161469,1614.69,373
161566,1615.66,316
161661,1616.61,279
161757,1617.57,318
161859,1618.59,321
161963,1619.63,225
162063,1620.63,266
162174,1621.74,288
162282,1622.82,226
162385,1623.85,294
162496,1624.96,294
162604,1626.04,256
162704,1627.04,236
162806,1628.06,304
162913,1629.13,312
163013,1630.13,220
163106,1631.06,226
163192,1631.92,289
163282,1632.82,333
163379,1633.79,241
163471,1634.71,214
163561,1635.61,244
163661,1636.61,322
163765,1637.65,239
163859,1638.59,256
163952,1639.52,379
164049,1640.49,319
164145,1641.45,244
164239,1642.39,333
164340,1643.4,308
164448,1644.48,234
164541,1645.41,374
164650,1646.5,275
164736,1647.36,322
164815,1648.15,379
164898,1648.98,344
165001,1650.01,326
165085,1650.85,307
165163,1651.63,315
165244,1652.44,315
165328,1653.28,275
165409,1654.09,276
165488,1654.88,362
165572,1655.72,334
165667,1656.67,289
165754,1657.54,237
165847,1658.47,318
165955,1659.55,251
166054,1660.54,232
166154,1661.54,284
166258,1662.58,318
166355,1663.55,267
166449,1664.49,326
166549,1665.49,331
166650,1666.5,311
166746,1667.46,225
166838,1668.38,280
166931,1669.31,346
167041,1670.41,302
167141,1671.41,232
167233,1672.33,227
167324,1673.24,333
167423,1674.23,317
167522,1675.22,250
167617,1676.17,223
167707,1677.07,316
167808,1678.08,351
167915,1679.15,274
168013,1680.13,263
168107,1681.07,312
168225,1682.25,333
168328,1683.28,268
168422,1684.22,279
168525,1685.25,357
168620,1686.2,250
168709,1687.09,260
168810,1688.1,352
168904,1689.04,269
168987,1689.87,323
169068,1690.68,390
169154,1691.54,339
169241,1692.41,247
169321,1693.21,335
169400,1694.0,341
169478,1694.78,252
169555,1695.55,317
169631,1696.31,301
169710,1697.1,336
169795,1697.95,253
169880,1698.8,318
169969,1699.69,318
170069,1700.69,260
170163,1701.63,255
170256,1702.56,327
170361,1703.61,300
170462,1704.62,221
170565,1705.65,277
170681,1706.81,320
170792,1707.92,231
170895,1708.95,226
170997,1709.97,290
171105,1711.05,290
171204,1712.04,293
171299,1712.99,260
171389,1713.89,207
171474,1714.74,223
171558,1715.58,348
171646,1716.46,314
171749,1717.49,241
171841,1718.41,260
171934,1719.34,347
172040,1720.4,340
172142,1721.42,224
172238,1722.38,288
172341,1723.41,293
172441,1724.41,274
172538,1725.38,291
172645,1726.45,344
172746,1727.46,281
172840,1728.4,273
172946,1729.46,341
173043,1730.43,229
173132,1731.32,325
173212,1732.12,336
173291,1732.91,405
173378,1733.78,395
173469,1734.69,293
173552,1735.52,277
173633,1736.33,304
173718,1737.18,326
173799,1737.99,232
173880,1738.8,353
173963,1739.63,296
174048,1740.48,265
174132,1741.32,253
174221,1742.21,323
174323,1743.23,296
174422,1744.22,269
174522,1745.22,294
174628,1746.28,312
174732,1747.32,260
174831,1748.31,276
174931,1749.31,321
175031,1750.31,306
175127,1751.27,223
175220,1752.2,234
175313,1753.13,343
175414,1754.14,267
175516,1755.16,251
175611,1756.11,282
175705,1757.05,309
175799,1757.99,298
175890,1758.9,240
175984,1759.84,342
176084,1760.84,312
176177,1761.77,236
176269,1762.69,300
176361,1763.61,323
176459,1764.59,269
176552,1765.52,264
176644,1766.44,309
176746,1767.46,338
176843,1768.43,251
176936,1769.36,249
177039,1770.39,395
177135,1771.35,248
177229,1772.29,296
177318,1773.18,340
177401,1774.01,330
177480,1774.8,363
177559,1775.59,375
177646,1776.46,327
177729,1777.29,280
177810,1778.1,337
177890,1778.9,329
177969,1779.69,293
178048,1780.48,298
178129,1781.29,331
178222,1782.22,345
178315,1783.15,257
178406,1784.06,340
178512,1785.12,354
178615,1786.15,271
178710,1787.1,268
178809,1788.09,277
178908,1789.08,236
179002,1790.02,257
179097,1790.97,286
179198,1791.98,325
179294,1792.94,255
179385,1793.85,255
179479,1794.79,347
179582,1795.82,291
179684,1796.84,246
179779,1797.79,278
179877,1798.77,295
179986,1799.86,325
180084,1800.84,243
180176,1801.76,281
180268,1802.68,347
180367,1803.67,310
180462,1804.62,262
180555,1805.55,233
180651,1806.51,295
180757,1807.57,268
180850,1808.5,262
180943,1809.43,350
181053,1810.53,299
181159,1811.59,228
181254,1812.54,325
181371,1813.71,378
181470,1814.7,303
181552,1815.52,341
181632,1816.32,359
181721,1817.21,345
181825,1818.25,233
181907,1819.07,292
181989,1819.89,382
182071,1820.71,320
182155,1821.55,222
182239,1822.39,314
182329,1823.29,305
182422,1824.22,300
182515,1825.15,259
182622,1826.22,304
182736,1827.36,307
182839,1828.39,283
182941,1829.41,295
183046,1830.46,250
183144,1831.44,284
183238,1832.38,279
183334,1833.34,253
183425,1834.25,251
183512,1835.12,236
183601,1836.01,305
183697,1836.97,303
183790,1837.9,229
183877,1838.77,318
183973,1839.73,319
184076,1840.76,275
184165,1841.65,245
184253,1842.53,333
184350,1843.5,349
184457,1844.57,270
184555,1845.55,228
184659,1846.59,369
184766,1847.66,273
184865,1848.65,248
184982,1849.82,360
185090,1850.9,212
185189,1851.89,259
185293,1852.93,393
185398,1853.98,286
185490,1854.9,310
185573,1855.73,430
185664,1856.64,363
185771,1857.71,307
185856,1858.56,284
185938,1859.38,359
186018,1860.18,323
186096,1860.96,245
186173,1861.73,324
186250,1862.5,354
186331,1863.31,300
186414,1864.14,266
186500,1865.0,283
186590,1865.9,362
186685,1866.85,247
186778,1867.78,307
186875,1868.75,283
186975,1869.75,255
187068,1870.68,288
187167,1871.67,281
187278,1872.78,247
187384,1873.84,271
187477,1874.77,230
187570,1875.7,300
187668,1876.68,276
187759,1877.59,267
187847,1878.47,325
187947,1879.47,305
188047,1880.47,277
188139,1881.39,270
188231,1882.31,306
188333,1883.33,281
188433,1884.33,266
188529,1885.29,273
188624,1886.24,249
188729,1887.29,338
188835,1888.35,275
188938,1889.38,267
189049,1890.49,373
189155,1891.55,277
189251,1892.51,238
189364,1893.64,368
189474,1894.74,278
189576,1895.76,273
189628,1896.28,358
189740,1897.4,287
189822,1898.22,372
189902,1899.02,408
190030,1900.3,394
190135,1901.35,282
190222,1902.22,346
190303,1903.03,320
190383,1903.83,387
190463,1904.63,300
190543,1905.43,285
190623,1906.23,316
190702,1907.02,262
190782,1907.82,288
190867,1908.67,351
190983,1909.83,357
191094,1910.94,243
191194,1911.94,274
191302,1913.02,268
191414,1914.14,246
191519,1915.19,302
191631,1916.31,269
191744,1917.44,291
191847,1918.47,271
191946,1919.46,292
192044,1920.44,267
192137,1921.37,247
192229,1922.29,281
192323,1923.23,286
192414,1924.14,293
192506,1925.06,333
192602,1926.02,287
192696,1926.96,271
192789,1927.89,341
192888,1928.88,328
192989,1929.89,318
193089,1930.89,268
193180,1931.8,229
193271,1932.71,346
193371,1933.71,287
193471,1934.71,252
193568,1935.68,224
193666,1936.66,361
193770,1937.7,308
193873,1938.73,236
193968,1939.68,266
194069,1940.69,325
194175,1941.75,245
194277,1942.77,335
194396,1943.96,370
194499,1944.99,239
194595,1945.95,251
194688,1946.88,352
194771,1947.71,324
194850,1948.5,351
194933,1949.33,402
195051,1950.51,274
195139,1951.39,319
195221,1952.21,425
195306,1953.06,380
195399,1953.99,316
195481,1954.81,235
195561,1955.61,249
195640,1956.4,365
195718,1957.18,287
195799,1957.99,209
195881,1958.81,282
195973,1959.73,336
196073,1960.73,232
196170,1961.7,345
196270,1962.7,349
196369,1963.69,240
196463,1964.63,284
196559,1965.59,288
196659,1966.59,272
196758,1967.58,274
196853,1968.53,276
196946,1969.46,282
197041,1970.41,293
197132,1971.32,287
197225,1972.25,307
197324,1973.24,240
197422,1974.22,297
197524,1975.24,340
197628,1976.28,288
197725,1977.25,269
197821,1978.21,323
197924,1979.24,292
198032,1980.32,297
198130,1981.3,248
198231,1982.31,358
198349,1983.49,274
198446,1984.46,238
198540,1985.4,339
198647,1986.47,333
198744,1987.44,238
198832,1988.32,343
198913,1989.13,416
198999,1989.99,374
199106,1991.06,329
199191,1991.91,317
199275,1992.75,378
199363,1993.63,326
199449,1994.49,248
199530,1995.3,292
199613,1996.13,366
199701,1997.01,297
199787,1997.87,242
199878,1998.78,365
199980,1999.8,316
200082,2000.82,228
200180,2001.8,292
200281,2002.81,239
200379,2003.79,319
200491,2004.91,337
200602,2006.02,241
200705,2007.05,281
200810,2008.1,283
200915,2009.15,313
201014,2010.14,269
201105,2011.05,231
201197,2011.97,336
201298,2012.98,314
201404,2014.04,252
201502,2015.02,228
201593,2015.93,335
201686,2016.86,337
201792,2017.92,310
201887,2018.87,256
201978,2019.78,300
202073,2020.73,346
202180,2021.8,289
202274,2022.74,248
202368,2023.68,227
202467,2024.67,384
202569,2025.69,261
202666,2026.66,300
202759,2027.59,360
202848,2028.48,254
202932,2029.32,299
203014,2030.14,408
203098,2030.98,306
203184,2031.84,217
203264,2032.64,308
203343,2033.43,315
203423,2034.23,278
203502,2035.02,274
203581,2035.81,314
203661,2036.61,334
203745,2037.45,284
203828,2038.28,291
203912,2039.12,304
204007,2040.07,351
204104,2041.04,257
204198,2041.98,261
204296,2042.96,338
204398,2043.98,279
204493,2044.93,301
204590,2045.9,290
204694,2046.94,301
204794,2047.94,218
204890,2048.9,252
204985,2049.85,265
205085,2050.85,248
205184,2051.84,238
205277,2052.77,261
205372,2053.72,334
205474,2054.74,280
205568,2055.68,270
205656,2056.56,217
205746,2057.46,338
205845,2058.45,324
205938,2059.38,243
206029,2060.29,288
206124,2061.24,355
206229,2062.29,255
206323,2063.23,258
206416,2064.16,308
206520,2065.2,357
206626,2066.26,244
206731,2067.31,247
206838,2068.38,359
206944,2069.44,331
207047,2070.47,250
207145,2071.45,260
207251,2072.51,345
207353,2073.53,264
207446,2074.46,225
207506,2075.06,379
207627,2076.27,311
207709,2077.09,342
207790,2077.9,348
207879,2078.79,340
207963,2079.63,312
208043,2080.43,386
208124,2081.24,308
208203,2082.03,242
208282,2082.82,258
208363,2083.63,330
208449,2084.49,331
208535,2085.35,269
208622,2086.22,355
208717,2087.17,360
208813,2088.13,261
208903,2089.03,310
208999,2089.99,346
209092,2090.92,234
209181,2091.81,294
209275,2092.75,337
209376,2093.76,316
209472,2094.72,258
209562,2095.62,273
209650,2096.5,317
209741,2097.41,252
209835,2098.35,230
209923,2099.23,228
210011,2100.11,318
210102,2101.02,282
210198,2101.98,273
210286,2102.86,214
210376,2103.76,338
210470,2104.7,281
210568,2105.68,278
210660,2106.6,215
210755,2107.55,322
210863,2108.63,326
210962,2109.62,216
211057,2110.57,306
211158,2111.58,296
211266,2112.66,279
211365,2113.65,276
211470,2114.7,343
211581,2115.81,345
211681,2116.81,243
211776,2117.76,275
211888,2118.88,370
211983,2119.83,270
212065,2120.65,330
212144,2121.44,387
212224,2122.24,319
212305,2123.05,305
212382,2123.82,293
212461,2124.61,413
212540,2125.4,309
212623,2126.23,304
212702,2127.02,330
212783,2127.83,296
212861,2128.61,209
212940,2129.4,294
213019,2130.19,293
213107,2131.07,337
213202,2132.02,306
213294,2132.94,256
213383,2133.83,257
213477,2134.77,314
213576,2135.76,277
213678,2136.78,229
213777,2137.77,294
213877,2138.77,306
213983,2139.83,290
214076,2140.76,250
214171,2141.71,309
214263,2142.63,277
214352,2143.52,260
214443,2144.43,335
214540,2145.4,337
214641,2146.41,234
214735,2147.35,263
214829,2148.29,330
214934,2149.34,308
215039,2150.39,273
215133,2151.33,281
215230,2152.3,308
215331,2153.31,262
215424,2154.24,235
215516,2155.16,295
215627,2156.27,274
215724,2157.24,239
215835,2158.35,351
215952,2159.52,294
216051,2160.51,268
216148,2161.48,325
216266,2162.66,348
216362,2163.62,267
216447,2164.47,348
216532,2165.32,351
216649,2166.49,285
216739,2167.39,341
216828,2168.28,356
216919,2169.19,280
217004,2170.04,264
217089,2170.89,378
217178,2171.78,303
217268,2172.68,308
217364,2173.64,339
217461,2174.61,261
217556,2175.56,296
217666,2176.66,353
217775,2177.75,229
217874,2178.74,288
217975,2179.75,299
218080,2180.8,244
218178,2181.78,344
218273,2182.73,346
218372,2183.72,249
218464,2184.64,223
218554,2185.54,343
218650,2186.5,241
218741,2187.41,242
218842,2188.42,369
218951,2189.51,330
219053,2190.53,230
219150,2191.5,317
219254,2192.54,312
219369,2193.69,259
219466,2194.66,257
219560,2195.6,351
219666,2196.66,307
219760,2197.6,242
219856,2198.56,402
219956,2199.56,307
220042,2200.42,363
220124,2201.24,331
220211,2202.11,287
220300,2203.0,270
220385,2203.85,390
220468,2204.68,316
220551,2205.51,304
220636,2206.36,326
220721,2207.21,267
220806,2208.06,282
220902,2209.02,334
220999,2209.99,338
221091,2210.91,225
221185,2211.85,286
221283,2212.83,281
221373,2213.73,305
221466,2214.66,334
221561,2215.61,274
221652,2216.52,247
221744,2217.44,325
221850,2218.5,331
221948,2219.48,247
222044,2220.44,343
222156,2221.56,360
222262,2222.62,271
222360,2223.6,285
222467,2224.67,344
222576,2225.76,329
222674,2226.74,210
222767,2227.67,226
222863,2228.63,362
222958,2229.58,254
223052,2230.52,224
223153,2231.53,386
223261,2232.61,283
223363,2233.63,274
223473,2234.73,348
223579,2235.79,266
223670,2236.7,244
223756,2237.56,348
223837,2238.37,315
223915,2239.15,342
224001,2240.01,395
224100,2241.0,247
224182,2241.82,302
224260,2242.6,325
224339,2243.39,380
224415,2244.15,348
224491,2244.91,309
224566,2245.66,293
224643,2246.43,274
224717,2247.17,201
224791,2247.91,260
224866,2248.66,331
224943,2249.43,258
225026,2250.26,218
225119,2251.19,299
225225,2252.25,299
225325,2253.25,261
225433,2254.33,300
225543,2255.43,291
225652,2256.52,278
225758,2257.58,307
225865,2258.65,252
225971,2259.71,280
226068,2260.68,225
226162,2261.62,263
226260,2262.6,263
226358,2263.58,238
226449,2264.49,225
226538,2265.38,291
226623,2266.23,266
226715,2267.15,275
226802,2268.02,213
226889,2268.89,284
226987,2269.87,343
227087,2270.87,227
227178,2271.78,262
227269,2272.69,295
227377,2273.77,297
227475,2274.75,207
227570,2275.7,239
227667,2276.67,380
227774,2277.74,266
227876,2278.76,212
227973,2279.73,378
228087,2280.87,362
228204,2282.04,243
228300,2283.0,349
228386,2283.86,288
228466,2284.66,339
228547,2285.47,403
228668,2286.68,312
228764,2287.64,247
228854,2288.54,340
228941,2289.41,332
229023,2290.23,264
229103,2291.03,361
229179,2291.79,277
229255,2292.55,335
229334,2293.34,320
229456,2294.56,345
229567,2295.67,246
229670,2296.7,290
229777,2297.77,341
229876,2298.76,252
229978,2299.78,306
230084,2300.84,310
230185,2301.85,269
230285,2302.85,320
230391,2303.91,332
230491,2304.91,264
230585,2305.85,347
230683,2306.83,310
230778,2307.78,256
230870,2308.7,233
230968,2309.68,358
231067,2310.67,236
231160,2311.6,223
231260,2312.6,380
231372,2313.72,282
231482,2314.82,221
231585,2315.85,361
231692,2316.92,291
231798,2317.98,253
231897,2318.97,343
232004,2320.04,349
232105,2321.05,237
232201,2322.01,290
232309,2323.09,336
232414,2324.14,232
232512,2325.12,274
232618,2326.18,385
232710,2327.1,287
232791,2327.91,290
232869,2328.69,308
232942,2329.42,309
233016,2330.16,484
233087,2330.87,156
233091,2330.91,296
233122,2331.22,169
233145,2331.45,137
233153,2331.53,208
233166,2331.66,388
233198,2331.98,110
233240,2332.4,333
233278,2332.78,105
233312,2333.12,307
233381,2333.81,214
233450,2334.5,307
233519,2335.19,346
233586,2335.86,268
233653,2336.53,212
233720,2337.2,308
233787,2337.87,323
233854,2338.54,268
233922,2339.22,279
233990,2339.9,294
234058,2340.58,303
234134,2341.34,261
234223,2342.23,258
234317,2343.17,295
234429,2344.29,294
234533,2345.33,229
234635,2346.35,288
234741,2347.41,266
234844,2348.44,237
234939,2349.39,285
235033,2350.33,288
235131,2351.31,282
235223,2352.23,237
235315,2353.15,285
235418,2354.18,284
235512,2355.12,256
235609,2356.09,338
235716,2357.16,315
235812,2358.12,225
235909,2359.09,353
236025,2360.25,319
236132,2361.32,239
236227,2362.27,265
236319,2363.19,331
236414,2364.14,278
236507,2365.07,246
236603,2366.03,379
236713,2367.13,279
236807,2368.07,253
236899,2368.99,343
236996,2369.96,307
237090,2370.9,221
237173,2371.73,313
237253,2372.53,361
237345,2373.45,275
237429,2374.29,311
237509,2375.09,344
237590,2375.9,337
237672,2376.72,237
237754,2377.54,282
237835,2378.35,319
237916,2379.16,223
237999,2379.99,294
238086,2380.86,359
238197,2381.97,281
238302,2383.02,248
238401,2384.01,333
238507,2385.07,317
238607,2386.07,269
238708,2387.08,298
238815,2388.15,289
238918,2389.18,314
239026,2390.26,308
239134,2391.34,224
239233,2392.33,255
239331,2393.31,331
239441,2394.41,301
239543,2395.43,290
239643,2396.43,264
239732,2397.32,278
239824,2398.24,300
239926,2399.26,237
240021,2400.21,246
240127,2401.27,309
240241,2402.41,328
240345,2403.45,213
240443,2404.43,296
240562,2405.62,311
240672,2406.72,253
240772,2407.72,264
240885,2408.85,363
240986,2409.86,213
241080,2410.8,244
241191,2411.91,388
241287,2412.87,271
241369,2413.69,354
241451,2414.51,372
241577,2415.77,350
241678,2416.78,301
241765,2417.65,354
241851,2418.51,346
241934,2419.34,284
242016,2420.16,257
242101,2421.01,329
242198,2421.98,290
242294,2422.94,228
242395,2423.95,301
242503,2425.03,253
242601,2426.01,298
242702,2427.02,286
242805,2428.05,239
242904,2429.04,303
243006,2430.06,340
243111,2431.11,278
243210,2432.1,267
243310,2433.1,302
243406,2434.06,219
243496,2434.96,297
243587,2435.87,295
243682,2436.82,226
243770,2437.7,280
243863,2438.63,277
243961,2439.61,255
244055,2440.55,266
244151,2441.51,293
244250,2442.5,236
244349,2443.49,215
244449,2444.49,354
244563,2445.63,327
244671,2446.71,251
244768,2447.68,270
244877,2448.77,330
244985,2449.85,277
245089,2450.89,294
245197,2451.97,324
245303,2453.03,236
245404,2454.04,239
245509,2455.09,385
245622,2456.22,294
245712,2457.12,348
245793,2457.93,386
245877,2458.77,388
245970,2459.7,270
246051,2460.51,290
246130,2461.3,325
246208,2462.08,322
246289,2462.89,295
246371,2463.71,288
246450,2464.5,276
246532,2465.32,288
246617,2466.17,285
246706,2467.06,239
246794,2467.94,291
246894,2468.94,315
246992,2469.92,246
247090,2470.9,268
247196,2471.96,245
247297,2472.97,327
247399,2473.99,308
247503,2475.03,227
247603,2476.03,268
247696,2476.96,279
247793,2477.93,302
247888,2478.88,242
247980,2479.8,275
248077,2480.77,321
248187,2481.87,287
248285,2482.85,217
248383,2483.83,328
248488,2484.88,269
248581,2485.81,229
248675,2486.75,318
248771,2487.71,276
248875,2488.75,227
248971,2489.71,259
249069,2490.69,358
249189,2491.89,297
249290,2492.9,283
249403,2494.03,354
249521,2495.21,258
249625,2496.25,217
249736,2497.36,311
249852,2498.52,241
249952,2499.52,231
250052,2500.52,342
250159,2501.59,242
250263,2502.63,310
250372,2503.72,355
250475,2504.75,282
250563,2505.63,397
250646,2506.46,365
250730,2507.3,233
250810,2508.1,310
250890,2508.9,370
250969,2509.69,298
251047,2510.47,278
251125,2511.25,325
251205,2512.05,290
251287,2512.87,238
251374,2513.74,355
251467,2514.67,296
251559,2515.59,232
251657,2516.57,349
251768,2517.68,237
251871,2518.71,350
251980,2519.8,305
252086,2520.86,264
252184,2521.84,293
252287,2522.87,338
252391,2523.91,274
252487,2524.87,210
252577,2525.77,288
252671,2526.71,329
252771,2527.71,262
252862,2528.62,265
252952,2529.52,305
253051,2530.51,321
253149,2531.49,227
253241,2532.41,312
253359,2533.59,296
253466,2534.66,245
253562,2535.62,222
253663,2536.63,363
253762,2537.62,284
253855,2538.55,240
253948,2539.48,312
254050,2540.5,332
254176,2541.76,238
254286,2542.86,300
254416,2544.16,370
254532,2545.32,224
254636,2546.36,334
254759,2547.59,377
254856,2548.56,233
254942,2549.42,320
255023,2550.23,365
255102,2551.02,295
255181,2551.81,264
255258,2552.58,342
255344,2553.44,286
255430,2554.3,277
255511,2555.11,301
255593,2555.93,333
255680,2556.8,274
255764,2557.64,273
255852,2558.52,380
255953,2559.53,272
256056,2560.56,258
256160,2561.6,306
256276,2562.76,331
256382,2563.82,257
256485,2564.85,345
256594,2565.94,269
256697,2566.97,319
256808,2568.08,279
256916,2569.16,247
257017,2570.17,251
257109,2571.09,256
257199,2571.99,328
257293,2572.93,293
257382,2573.82,225
257469,2574.69,252
257559,2575.59,325
257660,2576.6,229
257750,2577.5,263
257846,2578.46,343
257947,2579.47,274
258047,2580.47,253
258141,2581.41,293
258240,2582.4,344
258351,2583.51,290
258451,2584.51,213
258555,2585.55,319
258663,2586.63,299
258764,2587.64,294
258874,2588.74,311
258982,2589.82,220
259082,2590.82,273
259175,2591.75,316
259260,2592.6,248
259339,2593.39,340
259418,2594.18,349
259553,2595.53,315
259644,2596.44,295
259727,2597.27,374
259813,2598.13,323
259894,2598.94,247
259975,2599.75,357
260058,2600.58,357
260156,2601.56,271
260247,2602.47,278
260366,2603.66,318
260477,2604.77,231
260586,2605.86,331
260702,2607.02,263
260807,2608.07,236
260910,2609.1,292
261017,2610.17,326
261116,2611.16,252
261212,2612.12,299
261298,2612.98,293
261414,2614.14,300
261508,2615.08,216
261599,2615.99,277
261698,2616.98,336
261797,2617.97,231
261893,2618.93,260
261997,2619.97,331
262107,2621.07,254
262212,2622.12,261
262313,2623.13,346
262425,2624.25,342
262529,2625.29,230
262625,2626.25,299
262727,2627.27,343
262829,2628.29,282
262933,2629.33,264
263045,2630.45,365
263160,2631.6,309
263260,2632.6,224
263345,2633.45,373
263427,2634.27,329
263521,2635.21,208
263612,2636.12,263
263700,2637.0,372
263792,2637.92,295
263879,2638.79,256
263972,2639.72,362
264069,2640.69,269
264163,2641.63,322
264268,2642.68,268
264363,2643.63,270
264466,2644.66,293
264574,2645.74,238
264678,2646.78,275
264793,2647.93,281
264904,2649.04,230
265003,2650.03,233
265100,2651.0,321
265212,2652.12,331
265313,2653.13,250
265407,2654.07,288
265516,2655.16,338
265618,2656.18,213
265718,2657.18,282
265820,2658.2,322
265929,2659.29,283
266029,2660.29,259
266139,2661.39,381
266252,2662.52,228
266355,2663.55,232
266468,2664.68,324
266578,2665.78,292
266677,2666.77,273
266771,2667.71,353
266885,2668.85,343
266988,2669.88,217
267086,2670.86,356
267196,2671.96,339
267300,2673.0,235
267385,2673.85,318
267466,2674.66,372
267542,2675.42,273
267616,2676.16,315
267690,2676.9,364
267764,2677.64,317
267840,2678.4,357
267917,2679.17,318
267996,2679.96,256
268071,2680.71,269
268147,2681.47,316
268224,2682.24,270
268303,2683.03,252
268382,2683.82,250
268466,2684.66,295
268557,2685.57,251
268644,2686.44,246
268737,2687.37,304
268834,2688.34,281
268923,2689.23,211
269014,2690.14,316
269107,2691.07,289
269197,2691.97,261
269288,2692.88,312
269379,2693.79,249
269470,2694.7,245
269558,2695.58,250
269642,2696.42,254
269725,2697.25,311
269810,2698.1,310
269898,2698.98,254
269982,2699.82,257
270068,2700.68,328
270161,2701.61,252
270255,2702.55,219
270343,2703.43,262
270433,2704.33,333
270532,2705.32,221
270624,2706.24,262
270722,2707.22,347
270832,2708.32,296
270941,2709.41,260
271037,2710.37,277
271147,2711.47,305
271255,2712.55,238
271356,2713.56,289
271468,2714.68,368
271577,2715.77,257
271677,2716.77,298
271786,2717.86,298
271894,2718.94,224
271989,2719.89,268
272094,2720.94,391
272190,2721.9,329
272273,2722.73,360
272353,2723.53,384
272433,2724.33,268
272512,2725.12,350
272592,2725.92,377
272674,2726.74,257
272754,2727.54,310
272832,2728.32,326
272912,2729.12,317
272992,2729.92,255
273075,2730.75,321
273168,2731.68,265
273258,2732.58,222
273353,2733.53,300
273470,2734.7,267
273577,2735.77,231
273684,2736.84,305
273794,2737.94,338
273900,2739.0,202
274007,2740.07,289
274107,2741.07,234
274201,2742.01,280
274297,2742.97,318
274394,2743.94,284
274489,2744.89,247
274581,2745.81,291
274673,2746.73,288
274772,2747.72,236
274870,2748.7,306
274972,2749.72,232
275067,2750.67,232
275162,2751.62,335
275262,2752.62,282
275354,2753.54,201
275442,2754.42,268
275535,2755.35,342
275637,2756.37,329
275729,2757.29,210
275822,2758.22,312
275923,2759.23,316
276031,2760.31,248
276131,2761.31,256
276245,2762.45,350
276352,2763.52,248
276451,2764.51,216
276547,2765.47,383
276643,2766.43,295
276727,2767.27,321
276806,2768.06,366
276889,2768.89,259
276979,2769.79,300
277059,2770.59,352
277140,2771.4,329
277221,2772.21,255
277303,2773.03,288
277386,2773.86,311
277470,2774.7,285
277554,2775.54,253
277643,2776.43,303
277738,2777.38,245
277830,2778.3,322
277931,2779.31,270
278038,2780.38,227
278143,2781.43,285
278253,2782.53,316
278362,2783.62,255
278475,2784.75,301
278589,2785.89,280
278689,2786.89,231
278788,2787.88,323
278893,2788.93,300
278995,2789.95,262
279089,2790.89,263
279181,2791.81,295
279279,2792.79,343
279389,2793.89,296
279488,2794.88,232
279579,2795.79,276
279670,2796.7,283
279772,2797.72,227
279878,2798.78,267
279982,2799.82,333
280081,2800.81,223
280173,2801.73,289
280276,2802.76,335
280384,2803.84,263
280479,2804.79,243
280579,2805.79,384
280688,2806.88,222
280788,2807.88,319
280901,2809.01,392
281009,2810.09,194
281109,2811.09,289
281203,2812.03,336
281285,2812.85,351
281366,2813.66,409
281448,2814.48,328
281526,2815.26,272
281605,2816.05,339
281690,2816.9,300
281770,2817.7,265
281849,2818.49,368
281927,2819.27,324
282003,2820.03,263
282083,2820.83,339
282163,2821.63,339
282247,2822.47,244
282329,2823.29,263
282418,2824.18,341
282528,2825.28,301
282622,2826.22,244
282713,2827.13,284
282810,2828.1,261
282902,2829.02,273
282999,2829.99,302
283105,2831.05,322
283206,2832.06,242
283301,2833.01,281
283398,2833.98,318
283505,2835.05,289
283605,2836.05,240
283701,2837.01,234
283800,2838.0,298
283909,2839.09,302
284011,2840.11,246
284105,2841.05,277
284203,2842.03,331
284300,2843.0,278
284393,2843.93,259
284487,2844.87,295
284606,2846.06,335
284713,2847.13,260
284814,2848.14,255
284916,2849.16,363
285018,2850.18,259
285117,2851.17,256
285220,2852.2,334
285335,2853.35,218
285447,2854.47,280
285572,2855.72,368
285674,2856.74,244
285762,2857.62,361
285846,2858.46,387
285940,2859.4,255
286036,2860.36,295
286122,2861.22,389
286207,2862.07,359
286290,2862.9,263
286372,2863.72,313
286454,2864.54,331
286538,2865.38,228
286627,2866.27,263
286722,2867.22,364
286833,2868.33,253
286934,2869.34,233
287037,2870.37,311
287145,2871.45,272
287248,2872.48,347
287356,2873.56,321
287464,2874.64,229
287563,2875.63,251
287666,2876.66,319
287775,2877.75,284
287876,2878.76,206
287974,2879.74,237
288070,2880.7,299
288171,2881.71,268
288267,2882.67,254
288363,2883.63,346
288475,2884.75,312
288578,2885.78,262
288671,2886.71,262
288764,2887.64,348
288870,2888.7,225
288972,2889.72,257
289071,2890.71,333
289180,2891.8,272
289280,2892.8,276
289388,2893.88,379
289495,2894.95,214
289591,2895.91,250
289694,2896.94,378
289801,2898.01,210
289895,2898.95,307
290013,2900.13,354
290104,2901.04,322
290184,2901.84,320
290263,2902.63,338
290346,2903.46,347
290448,2904.48,240
290531,2905.31,258
290612,2906.12,315
290688,2906.88,262
290763,2907.63,233
290842,2908.42,298
290921,2909.21,311
291006,2910.06,252
291094,2910.94,283
291188,2911.88,286
291294,2912.94,236
291390,2913.9,269
291488,2914.88,317
291591,2915.91,255
291693,2916.93,253
291790,2917.9,281
291890,2918.9,298
291986,2919.86,223
292084,2920.84,326
292182,2921.82,308
292281,2922.81,257
292372,2923.72,258
292464,2924.64,336
292559,2925.59,283
292650,2926.5,226
292738,2927.38,230
292825,2928.25,300
292920,2929.2,319
293012,2930.12,217
293100,2931.0,232
293187,2931.87,289
293285,2932.85,226
293382,2933.82,228
293487,2934.87,319
293603,2936.03,247
293713,2937.13,221
293820,2938.2,364
293940,2939.4,299
294049,2940.49,248
294147,2941.47,305
294246,2942.46,354
294353,2943.53,226
294442,2944.42,353
294526,2945.26,382
294614,2946.14,298
294695,2946.95,292
294779,2947.79,353
294873,2948.73,273
294960,2949.6,273
295044,2950.44,325
295123,2951.23,254
295200,2952.0,262
295282,2952.82,351
295373,2953.73,252
295466,2954.66,307
295574,2955.74,358
295683,2956.83,251
295788,2957.88,358
295896,2958.96,347
295997,2959.97,255
296092,2960.92,317
296190,2961.9,355
296288,2962.88,244
296380,2963.8,258
296473,2964.73,305
296581,2965.81,260
296680,2966.8,231
296780,2967.8,316
296876,2968.76,276
296972,2969.72,249
297066,2970.66,225
297164,2971.64,356
297270,2972.7,267
297370,2973.7,253
297473,2974.73,359
297588,2975.88,333
297697,2976.97,237
297804,2978.04,317
297908,2979.08,340
298014,2980.14,244
298124,2981.24,352
298232,2982.32,289
298329,2983.29,241
298418,2984.18,402
298501,2985.01,290
298579,2985.79,296
298657,2986.57,402
298740,2987.4,285
298827,2988.27,288
298909,2989.09,377
298990,2989.9,343
299071,2990.71,257
299151,2991.51,323
299231,2992.31,362
299315,2993.15,274
299401,2994.01,291
299496,2994.96,330
299601,2996.01,243
299695,2996.95,315
299797,2997.97,330
299895,2998.95,287
299988,2999.88,300
300081,3000.81,289
300177,3001.77,245
300271,3002.71,280
300370,3003.7,328
300471,3004.71,284
300573,3005.73,262
300671,3006.71,250
300767,3007.67,358
300864,3008.64,299
300957,3009.57,255
301050,3010.5,320
301153,3011.53,326
301249,3012.49,204
301340,3013.4,217
301436,3014.36,357
301539,3015.39,317
301635,3016.35,243
301734,3017.34,364
301825,3018.25,316
301906,3019.06,274
301986,3019.86,403
302083,3020.83,377
302193,3021.93,222
302280,3022.8,334
302364,3023.64,332
302449,3024.49,270
302533,3025.33,269
302620,3026.2,394
302711,3027.11,265
302804,3028.04,291
302909,3029.09,364
303020,3030.2,233
303122,3031.22,353
303238,3032.38,370
303350,3033.5,205
303455,3034.55,339
303564,3035.64,319
303670,3036.7,259
303768,3037.68,358
303870,3038.7,286
303967,3039.67,258
304068,3040.68,373
304171,3041.71,248
304269,3042.69,266
304371,3043.71,338
304480,3044.8,256
304580,3045.8,219
304686,3046.86,374
304794,3047.94,298
304898,3048.98,247
305015,3050.15,385
305129,3051.29,324
305239,3052.39,253
305364,3053.64,342
305478,3054.78,294
305572,3055.72,287
305654,3056.54,370
305733,3057.33,398
305814,3058.14,275
305889,3058.89,324
305964,3059.64,348
306033,3060.33,288
306118,3061.18,247
306193,3061.93,315
306266,3062.66,284
306338,3063.38,257
306411,3064.11,270
306486,3064.86,309
306567,3065.67,290
306652,3066.52,263
306736,3067.36,327
306823,3068.23,304
306922,3069.22,293
307013,3070.13,229
307105,3071.05,283
307202,3072.02,281
307299,3072.99,255
307389,3073.89,266
307483,3074.83,284
307578,3075.78,259
307667,3076.67,289
307758,3077.58,273
307856,3078.56,305
307952,3079.52,239
308042,3080.42,249
308138,3081.38,296
308239,3082.39,320
308337,3083.37,244
308429,3084.29,280
308522,3085.22,279
308623,3086.23,238
308720,3087.2,235
308818,3088.18,328
308930,3089.3,286
309030,3090.3,250
309122,3091.22,273
309215,3092.15,338
309320,3093.2,292
309419,3094.19,215
309527,3095.27,368
309642,3096.42,259
309750,3097.5,255
309851,3098.51,312
309966,3099.66,350
310084,3100.84,254
310184,3101.84,392
310271,3102.71,329
310349,3103.49,366
310426,3104.26,373
310555,3105.55,250
310649,3106.49,323
310676,3106.76,104
310728,3107.28,353
310806,3108.06,368
310885,3108.85,341
310965,3109.65,266
311045,3110.45,340
311128,3111.28,303
311215,3112.15,252
311308,3113.08,351
311422,3114.22,267
311539,3115.39,373
311657,3116.57,261
311765,3117.65,231
311880,3118.8,284
311997,3119.97,261
312104,3121.04,247
312214,3122.14,279
312320,3123.2,275
312417,3124.17,257
312516,3125.16,340
312619,3126.19,227
312715,3127.15,219
312813,3128.13,296
312917,3129.17,262
313016,3130.16,220
313117,3131.17,329
313227,3132.27,312
313332,3133.32,252
313427,3134.27,273
313525,3135.25,331
313637,3136.37,294
313741,3137.41,250
313840,3138.4,302
313951,3139.51,286
314061,3140.61,255
314161,3141.61,228
314271,3142.71,358
314384,3143.84,282
314494,3144.94,304
314608,3146.08,331
314717,3147.17,204
314815,3148.15,228
314912,3149.12,373
315009,3150.09,317
315095,3150.95,316
315178,3151.78,416
315264,3152.64,290
315352,3153.52,284
315435,3154.35,365
315519,3155.19,287
315600,3156.0,266
315678,3156.78,279
315758,3157.58,348
315841,3158.41,278
315924,3159.24,262
316014,3160.14,347
316122,3161.22,300
316223,3162.23,348
316326,3163.26,329
316428,3164.28,255
316522,3165.22,321
316620,3166.2,337
316724,3167.24,288
316824,3168.24,230
316920,3169.2,302
317021,3170.21,337
317122,3171.22,242
317214,3172.14,226
317311,3173.11,286
317416,3174.16,255
317513,3175.13,262
317613,3176.13,312
317719,3177.19,270
317818,3178.18,266
317920,3179.2,299
318031,3180.31,298
318132,3181.32,251
318231,3182.31,323
318347,3183.47,359
318453,3184.53,217
318550,3185.5,314
318654,3186.54,365
318762,3187.62,251
318863,3188.63,250
318968,3189.68,342
319077,3190.77,250
319183,3191.83,267
319303,3193.03,374
319404,3194.04,193
319494,3194.94,354
319577,3195.77,354
319662,3196.62,326
319773,3197.73,280
319858,3198.58,340
319942,3199.42,329
320027,3200.27,245
320107,3201.07,277
320187,3201.87,346
320268,3202.68,298
320348,3203.48,235
320439,3204.39,339
320545,3205.45,318
320647,3206.47,227
320757,3207.57,335
320867,3208.67,226
320966,3209.66,297
321067,3210.67,344
321167,3211.67,275
321259,3212.59,295
321359,3213.59,281
321459,3214.59,293
321558,3215.58,245
321650,3216.5,256
321747,3217.47,352
321851,3218.51,282
321952,3219.52,260
322048,3220.48,272
322147,3221.47,290
322255,3222.55,232
322355,3223.55,238
322455,3224.55,326
322572,3225.72,316
322680,3226.8,231
322778,3227.78,234
322876,3228.76,369
322988,3229.88,351
323096,3230.96,259
323196,3231.96,319
323310,3233.1,349
323411,3234.11,223
323498,3234.98,312
323585,3235.85,397
323697,3236.97,304
323791,3237.91,246
323890,3238.9,417
323981,3239.81,269
324069,3240.69,255
324156,3241.56,389
324242,3242.42,267
324326,3243.26,330
324425,3244.25,394
324519,3245.19,242
324611,3246.11,344
324707,3247.07,314
324800,3248.0,242
324894,3248.94,380
324990,3249.9,298
325081,3250.81,241
325173,3251.73,350
325270,3252.7,255
325363,3253.63,242
325451,3254.51,318
325544,3255.44,353
325644,3256.44,203
325739,3257.39,284
325847,3258.47,366
325948,3259.48,226
326040,3260.4,207
326133,3261.33,378
326234,3262.34,323
326339,3263.39,228
326439,3264.39,361
326553,3265.53,371
326668,3266.68,248
326761,3267.61,238
326856,3268.56,396
326954,3269.54,254
327045,3270.45,277
327134,3271.34,386
327223,3272.23,333
327309,3273.09,298
327392,3273.92,338
327472,3274.72,271
327551,3275.51,230
327615,3276.15,357
327728,3277.28,312
327811,3278.11,249
327899,3278.99,328
327993,3279.93,353
328093,3280.93,255
328191,3281.91,307
328292,3282.92,290
328393,3283.93,204
328493,3284.93,342
328595,3285.95,349
328698,3286.98,247
328793,3287.93,265
328888,3288.88,351
328990,3289.9,321
329087,3290.87,247
329178,3291.78,213
329270,3292.7,335
329374,3293.74,350
329473,3294.73,229
329568,3295.68,226
329660,3296.6,377
329764,3297.64,285
329871,3298.71,220
329974,3299.74,311
330085,3300.85,297
330187,3301.87,227
330284,3302.84,256
330380,3303.8,338
330491,3304.91,217
330595,3305.95,268
330704,3307.04,322
330802,3308.02,250
330888,3308.88,330
330971,3309.71,365
331049,3310.49,341
331125,3311.25,404
331201,3312.01,420
331282,3312.82,378
331361,3313.61,275
331434,3314.34,236
331504,3315.04,249
331574,3315.74,299
331643,3316.43,334
331711,3317.11,199
331783,3317.83,278
331854,3318.54,296
331929,3319.29,272
332025,3320.25,276
332110,3321.1,267
332196,3321.96,329
332296,3322.96,272
332390,3323.9,305
332494,3324.94,332
332595,3325.95,273
332696,3326.96,307
332797,3327.97,258
332891,3328.91,272
332987,3329.87,321
333086,3330.86,261
333179,3331.79,243
333273,3332.73,272
333370,3333.7,234
333458,3334.58,239
333548,3335.48,342
333645,3336.45,285
333736,3337.36,265
333827,3338.27,316
333929,3339.29,328
334035,3340.35,228
334133,3341.33,250
334241,3342.41,314
334349,3343.49,226
334455,3344.55,310
334567,3345.67,307
334680,3346.8,235
334790,3347.9,331
334909,3349.09,297
335015,3350.15,308
335127,3351.27,352
335243,3352.43,251
335346,3353.46,270
335461,3354.61,375
335550,3355.5,273
335632,3356.32,399
335712,3357.12,361
335805,3358.05,258
335888,3358.88,321
335969,3359.69,341
336050,3360.5,264
336133,3361.33,259
336217,3362.17,370
336305,3363.05,301
336397,3363.97,253
336492,3364.92,348
336601,3366.01,262
336707,3367.07,334
336824,3368.24,306
336931,3369.31,263
337038,3370.38,317
337148,3371.48,260
337248,3372.48,269
337354,3373.54,330
337457,3374.57,289
337551,3375.51,265
337650,3376.5,332
337754,3377.54,299
337854,3378.54,264
337956,3379.56,363
338063,3380.63,283
338162,3381.62,262
338266,3382.66,332
338382,3383.82,293
338490,3384.9,250
338597,3385.97,339
338704,3387.04,314
338809,3388.09,255
338903,3389.03,261
338998,3389.98,319
339103,3391.03,323
339213,3392.13,251
339333,3393.33,348
339447,3394.47,290
339549,3395.49,243
339663,3396.63,345
339752,3397.52,310
339832,3398.32,382
339912,3399.12,273
339990,3399.9,295
340070,3400.7,380
340153,3401.53,283
340233,3402.33,309
340310,3403.1,314
340389,3403.89,315
340471,3404.71,203
340550,3405.5,279
340630,3406.3,363
340722,3407.22,321
340815,3408.15,245
340909,3409.09,357
341018,3410.18,354
341123,3411.23,252
341225,3412.25,314
341334,3413.34,308
341442,3414.42,245
341542,3415.42,306
341643,3416.43,331
341748,3417.48,272
341847,3418.47,258
341939,3419.39,281
342030,3420.3,285
342128,3421.28,290
342222,3422.22,228
342314,3423.14,287
342410,3424.1,293
342511,3425.11,272
342605,3426.05,254
342705,3427.05,336
342818,3428.18,275
342920,3429.2,236
343027,3430.27,307
343142,3431.42,334
343247,3432.47,244
343343,3433.43,303
343458,3434.58,322
343569,3435.69,243
343675,3436.75,269
343790,3437.9,369
343908,3439.08,266
344020,3440.2,313
344132,3441.32,337
344238,3442.38,246
344329,3443.29,384
344418,3444.18,365
344499,3444.99,323
344578,3445.78,404
344662,3446.62,374
344763,3447.63,207
344846,3448.46,327
344925,3449.25,376
345004,3450.04,372
345082,3450.82,312
345162,3451.62,209
345241,3452.41,246
345322,3453.22,353
345412,3454.12,274
345498,3454.98,230
345592,3455.92,293
345688,3456.88,277
345783,3457.83,299
345885,3458.85,316
345989,3459.89,263
346084,3460.84,277
346185,3461.85,339
346289,3462.89,300
346388,3463.88,257
346488,3464.88,280
346596,3465.96,318
346700,3467.0,260
346801,3468.01,305
346904,3469.04,279
347007,3470.07,266
347102,3471.02,258
347201,3472.01,331
347312,3473.12,339
347409,3474.09,211
347503,3475.03,315
347597,3475.97,284
347701,3477.01,260
347797,3477.97,271
347903,3479.03,350
348014,3480.14,257
348116,3481.16,287
348220,3482.2,326
348328,3483.28,292
348429,3484.29,265
348530,3485.3,387
348650,3486.5,274
348750,3487.5,357
348865,3488.65,385
348974,3489.74,224
349076,3490.76,342
349175,3491.75,328
349260,3492.6,358
349344,3493.44,350
349434,3494.34,356
349527,3495.27,219
349619,3496.19,333
349713,3497.13,339
349803,3498.03,213
349894,3498.94,348
349993,3499.93,343
350095,3500.95,249
350199,3501.99,335
350304,3503.04,333
350402,3504.02,229
350497,3504.97,266
350601,3506.01,319
350703,3507.03,254
350798,3507.98,290
350901,3509.01,288
351001,3510.01,241
351101,3511.01,256
351211,3512.11,297
351316,3513.16,248
351415,3514.15,232
351516,3515.16,354
351616,3516.16,232
351713,3517.13,222
351841,3518.41,325
351949,3519.49,295
352048,3520.48,326
352142,3521.42,276
352224,3522.24,313
352303,3523.03,412
352389,3523.89,391
352503,3525.03,244
352593,3525.93,291
352679,3526.79,365
352762,3527.62,261
352847,3528.47,348
352929,3529.29,339
353011,3530.11,267
353097,3530.97,338
353190,3531.9,326
353283,3532.83,252
353372,3533.72,372
353468,3534.68,332
353573,3535.73,216
353668,3536.68,279
353771,3537.71,339
353880,3538.8,227
353973,3539.73,237
354066,3540.66,365
354175,3541.75,304
354279,3542.79,249
354380,3543.8,361
354483,3544.83,226
354578,3545.78,255
354680,3546.8,358
354782,3547.82,282
354879,3548.79,218
354975,3549.75,367
355080,3550.8,364
355185,3551.85,207
355278,3552.78,285
355368,3553.68,397
355448,3554.48,317
355525,3555.25,346
355606,3556.06,329
355722,3557.22,280
355820,3558.2,344
355909,3559.09,286
355989,3559.89,349
356068,3560.68,390
356150,3561.5,303
356234,3562.34,247
356317,3563.17,317
356405,3564.05,371
356510,3565.1,247
356606,3566.06,356
356722,3567.22,315
356832,3568.32,250
356941,3569.41,375
357053,3570.53,254
357156,3571.56,248
357262,3572.62,352
357367,3573.67,269
357461,3574.61,279
357561,3575.61,277
357663,3576.63,246
357755,3577.55,261
357850,3578.5,348
357951,3579.51,283
358047,3580.47,239
358147,3581.47,363
358248,3582.48,277
358347,3583.47,288
358454,3584.54,294
358565,3585.65,269
358673,3586.73,342
358783,3587.83,307
358886,3588.86,264
358996,3589.96,375
359111,3591.11,238
359229,3592.29,344
359349,3593.49,378
359461,3594.61,222
359565,3595.65,341
359664,3596.64,292
359746,3597.46,340
359824,3598.24,412
359907,3599.07,310
359991,3599.91,275
360067,3600.67,302
360141,3601.41,405
360217,3602.17,363
360292,3602.92,347
360366,3603.66,309
360437,3604.37,251
360507,3605.07,245
360575,3605.75,233
360641,3606.41,266
360707,3607.07,326
360773,3607.73,234
360841,3608.41,230
360921,3609.21,303
361005,3610.05,310
361116,3611.16,263
361217,3612.17,305
361330,3613.3,323
361431,3614.31,256
361534,3615.34,324
361633,3616.33,252
361730,3617.3,223
361822,3618.22,317
361917,3619.17,311
362018,3620.18,283
362116,3621.16,229
362210,3622.1,225
362311,3623.11,285
362417,3624.17,253
362515,3625.15,229
362616,3626.16,363
362720,3627.2,282
362816,3628.16,253
362916,3629.16,337
363027,3630.27,273
363130,3631.3,334
363245,3632.45,277
363351,3633.51,255
363454,3634.54,297
363564,3635.64,308
363669,3636.69,262
363770,3637.7,294
363874,3638.74,337
363981,3639.81,242
364080,3640.8,274
364192,3641.92,310
364310,3643.1,227
364425,3644.25,267
364540,3645.4,344
364650,3646.5,234
364745,3647.45,336
364832,3648.32,317
364911,3649.11,371
364989,3649.89,350
365074,3650.74,298
365156,3651.56,312
365239,3652.39,381
365319,3653.19,279
365398,3653.98,322
365478,3654.78,303
365560,3655.6,208
365642,3656.42,285
365726,3657.26,311
365823,3658.23,239
365917,3659.17,335
366033,3660.33,339
366144,3661.44,233
366248,3662.48,345
366357,3663.57,333
366461,3664.61,268
366560,3665.6,306
366664,3666.64,285
366766,3667.66,220
366861,3668.61,271
366958,3669.58,289
367061,3670.61,272
367154,3671.54,244
367246,3672.46,351
367350,3673.5,297
367443,3674.43,251
367545,3675.45,338
367657,3676.57,314
367761,3677.61,220
367857,3678.57,314
367971,3679.71,353
368075,3680.75,213
368172,3681.72,312
368286,3682.86,371
368404,3684.04,236
368517,3685.17,338
368636,3686.36,385
368742,3687.42,243
368836,3688.36,252
368946,3689.46,317
369031,3690.31,350
369113,3691.13,394
369194,3691.94,346
369273,3692.73,294
369352,3693.52,349
369431,3694.31,266
369509,3695.09,347
369588,3695.88,335
369671,3696.71,225
369755,3697.55,313
369840,3698.4,319
369931,3699.31,287
370019,3700.19,322
370124,3701.24,352
370229,3702.29,275
370330,3703.3,365
370439,3704.39,334
370547,3705.47,267
370647,3706.47,321
370745,3707.45,301
370846,3708.46,253
370941,3709.41,252
371045,3710.45,329
371153,3711.53,259
371258,3712.58,318
371368,3713.68,333
371474,3714.74,247
371577,3715.77,293
371691,3716.91,354
371803,3718.03,239
371910,3719.1,234
372023,3720.23,325
372143,3721.43,282
372251,3722.51,278
372362,3723.62,296
372474,3724.74,250
372578,3725.78,281
372693,3726.93,352
372805,3728.05,239
372914,3729.14,296
373030,3730.3,312
373151,3731.51,227
373267,3732.67,299
373378,3733.78,241
373490,3734.9,328
373604,3736.04,340
373715,3737.15,256
373813,3738.13,342
373903,3739.03,333
373983,3739.83,319
374063,3740.63,384
374169,3741.69,276
374257,3742.57,300
374338,3743.38,371
374419,3744.19,400
374506,3745.06,373
374598,3745.98,299
374683,3746.83,228
374770,3747.7,363
374859,3748.59,299
374953,3749.53,253
375052,3750.52,339
375168,3751.68,365
375277,3752.77,230
375379,3753.79,328
375484,3754.84,289
375590,3755.9,253
375685,3756.85,251
375788,3757.88,356
375888,3758.88,261
375987,3759.87,337
376089,3760.89,332
376185,3761.85,209
376276,3762.76,271
376371,3763.71,308
376469,3764.69,260
376563,3765.63,315
376669,3766.69,353
376772,3767.72,240
376871,3768.71,262
376976,3769.76,340
377083,3770.83,277
377184,3771.84,237
377290,3772.9,354
377401,3774.01,291
377502,3775.02,247
377608,3776.08,374
377721,3777.21,268
377831,3778.31,251
377941,3779.41,329
378051,3780.51,223
378149,3781.49,370
378241,3782.41,263
378325,3783.25,346
378406,3784.06,411
378503,3785.03,365
378602,3786.02,235
378690,3786.9,384
378773,3787.73,370
378855,3788.55,243
378938,3789.38,298
379020,3790.2,373
379106,3791.06,254
379194,3791.94,294
379297,3792.97,338
379412,3794.12,233
379516,3795.16,308
379624,3796.24,316
379730,3797.3,289
379829,3798.29,336
379935,3799.35,306
380041,3800.41,227
380141,3801.41,283
380243,3802.43,350
380343,3803.43,253
380435,3804.35,224
380528,3805.28,352
380623,3806.23,257
380721,3807.21,216
380820,3808.2,370
380928,3809.28,325
381033,3810.33,204
381137,3811.37,272
381255,3812.55,317
381370,3813.7,205
381470,3814.7,292
381581,3815.81,365
381684,3816.84,218
381779,3817.79,305
381881,3818.81,357
381966,3819.66,307
382046,3820.46,374
382131,3821.31,324
382215,3822.15,259
382297,3822.97,344
382378,3823.78,295
382454,3824.54,289
382530,3825.3,329
382607,3826.07,319
382692,3826.92,264
382778,3827.78,258
382874,3828.74,362
382984,3829.84,303
383091,3830.91,354
383204,3832.04,296
383306,3833.06,202
383405,3834.05,307
383510,3835.1,350
383613,3836.13,224
383709,3837.09,291
383809,3838.09,324
383914,3839.14,282
384006,3840.06,258
384095,3840.95,328
384195,3841.95,337
384298,3842.98,269
384390,3843.9,233
384484,3844.84,331
384592,3845.92,326
384694,3846.94,243
384793,3847.93,313
384899,3848.99,337
385009,3850.09,262
385109,3851.09,262
385206,3852.06,315
385315,3853.15,295
385419,3854.19,237
385520,3855.2,314
385632,3856.32,326
385743,3857.43,255
385851,3858.51,354
385960,3859.6,355
386076,3860.76,259
386185,3861.85,350
386305,3863.05,325
386409,3864.09,225
386499,3864.99,377
386581,3865.81,392
386663,3866.63,302
386741,3867.41,272
386821,3868.21,368
386908,3869.08,344
386992,3869.92,223
387074,3870.74,332
387153,3871.53,348
387241,3872.41,312
387327,3873.27,246
387416,3874.16,377
387535,3875.35,277
387640,3876.4,285
387741,3877.41,330
387850,3878.5,254
387952,3879.52,236
388056,3880.56,303
388165,3881.65,281
388264,3882.64,236
388358,3883.58,288
388455,3884.55,307
388561,3885.61,239
388658,3886.58,219
388754,3887.54,317
388853,3888.53,347
388952,3889.52,233
389043,3890.43,282
389135,3891.35,312
389233,3892.33,308
389330,3893.3,283
389425,3894.25,285
389527,3895.27,333
389629,3896.29,238
389724,3897.24,252
389825,3898.25,327
389929,3899.29,312
390030,3900.3,215
390133,3901.33,304
390246,3902.46,288
390358,3903.58,222
390459,3904.59,301
390578,3905.78,308
390685,3906.85,225
390787,3907.87,314
390892,3908.92,385
390980,3909.8,288
391060,3910.6,290
391141,3911.41,396
391265,3912.65,287
391366,3913.66,318
391461,3914.61,342
391550,3915.5,282
391634,3916.34,382
391731,3917.31,353
391829,3918.29,257
391918,3919.18,365
392015,3920.15,332
392117,3921.17,284
392213,3922.13,352
392311,3923.11,373
392421,3924.21,279
392523,3925.23,318
392634,3926.34,300
392739,3927.39,261
392838,3928.38,265
392944,3929.44,308
393051,3930.51,267
393152,3931.52,266
393264,3932.64,337
393369,3933.69,243
393470,3934.7,356
393573,3935.73,362
393671,3936.71,262
393766,3937.66,273
393871,3938.71,333
393979,3939.79,239
394082,3940.82,311
394200,3942.0,349
394319,3943.19,222
394426,3944.26,339
394540,3945.4,351
394657,3946.57,254
394768,3947.68,356
394883,3948.83,359
394994,3949.94,265
395100,3951.0,360
395212,3952.12,295
395328,3953.28,253
395435,3954.35,297
395546,3955.46,290
395652,3956.52,261
395762,3957.62,365
395877,3958.77,282
395991,3959.91,309
396107,3961.07,337
396227,3962.27,259
396347,3963.47,287
396461,3964.61,328
396576,3965.76,325
396690,3966.9,247
396792,3967.92,277
396891,3968.91,335
396974,3969.74,324
397055,3970.55,400
397138,3971.38,308
397254,3972.54,250
397355,3973.55,320
397451,3974.51,335
397543,3975.43,269
397627,3976.27,366
397711,3977.11,358
397796,3977.96,275
397882,3978.82,258
397972,3979.72,371
398070,3980.7,294
398163,3981.63,238
398260,3982.6,377
398358,3983.58,298
398452,3984.52,264
398544,3985.44,356
398640,3986.4,315
398735,3987.35,269
398825,3988.25,256
398916,3989.16,342
399005,3990.05,245
399094,3990.94,234
399183,3991.83,297
399277,3992.77,320
399376,3993.76,239
399469,3994.69,232
399555,3995.55,340
399638,3996.38,308
399716,3997.16,297
399794,3997.94,357
399873,3998.73,292
399973,3999.73,224
400062,4000.62,261
400153,4001.53,383
400247,4002.47,274
400337,4003.37,331
400430,4004.3,314
400519,4005.19,256
400614,4006.14,337
400721,4007.21,298
400821,4008.21,221
400929,4009.29,363
401043,4010.43,269
401158,4011.58,251
401269,4012.69,326
401379,4013.79,338
401480,4014.8,204
401578,4015.78,290
401682,4016.82,290
401787,4017.87,262
401886,4018.86,214
401990,4019.9,309
402106,4021.06,312
402217,4022.17,227
402333,4023.33,323
402452,4024.52,327
402561,4025.61,226
402658,4026.58,268
402747,4027.47,294
402826,4028.26,323
402902,4029.02,408
402979,4029.79,438
403066,4030.66,295
403144,4031.44,233
403222,4032.22,324
403298,4032.98,295
403375,4033.75,210
403456,4034.56,256
403534,4035.34,354
403617,4036.17,268
403705,4037.05,324
403820,4038.2,311
403927,4039.27,258
404025,4040.25,353
404140,4041.4,325
404251,4042.51,276
404355,4043.55,297
404460,4044.6,327
404560,4045.6,271
404653,4046.53,217
404749,4047.49,369
404849,4048.49,303
404941,4049.41,218
405032,4050.32,354
405123,4051.23,299
405216,4052.16,248
405307,4053.07,245
405403,4054.03,345
405500,4055.0,281
405598,4055.98,238
405700,4057.0,322
405813,4058.13,272
405912,4059.12,275
406016,4060.16,319
406119,4061.19,270
406220,4062.2,283
406331,4063.31,293
406449,4064.49,222
406566,4065.66,329
406687,4066.87,353
406802,4068.02,247
406911,4069.11,345
407019,4070.19,323
407119,4071.19,239
407217,4072.17,356
407305,4073.05,297
407384,4073.84,364
407462,4074.62,346
407541,4075.41,299
407620,4076.2,375
407700,4077.0,296
407779,4077.79,284
407856,4078.56,324
407931,4079.31,317
408005,4080.05,211
408081,4080.81,257
408160,4081.6,367
408240,4082.4,348
408326,4083.26,296
408409,4084.09,286
408496,4084.96,306
408604,4086.04,352
408708,4087.08,220
408806,4088.06,287
408916,4089.16,334
409020,4090.2,253
409117,4091.17,294
409216,4092.16,321
409320,4093.2,279
409419,4094.19,242
409520,4095.2,357
409628,4096.28,302
409735,4097.35,229
409834,4098.34,271
409932,4099.32,305
410043,4100.43,321
410151,4101.51,263
410251,4102.51,235
410355,4103.55,373
410463,4104.63,303
410569,4105.69,226
410676,4106.76,342
410791,4107.91,312
410900,4109.0,220
411008,4110.08,353
411118,4111.18,272
411225,4112.25,258
411331,4113.31,339
411444,4114.44,271
411553,4115.53,240
411665,4116.65,290
411788,4117.88,243
411897,4118.97,272
412017,4120.17,309
412135,4121.35,259
412250,4122.5,285
412383,4123.83,322
412515,4125.15,301
412650,4126.5,330
412773,4127.73,215
412898,4128.98,318
413038,4130.38,293
413165,4131.65,218
413297,4132.97,337
413420,4134.2,243
413535,4135.35,288
413635,4136.35,258
413719,4137.19,279
413797,4137.97,357
413872,4138.72,238
413947,4139.47,254
414017,4140.17,317
414087,4140.87,381
414160,4141.6,291
414236,4142.36,338
414304,4143.04,227
414372,4143.72,274
414438,4144.38,275
414503,4145.03,262
414571,4145.71,314
414644,4146.44,297
414758,4147.58,350
414866,4148.66,226
414969,4149.69,298
415073,4150.73,311
415175,4151.75,245
415267,4152.67,285
415361,4153.61,331
415476,4154.76,276
415583,4155.83,251
415686,4156.86,277
415797,4157.97,358
415904,4159.04,228
416001,4160.01,310
416109,4161.09,341
416213,4162.13,243
416311,4163.11,293
416417,4164.17,297
416519,4165.19,227
416619,4166.19,336
416725,4167.25,306
416831,4168.31,244
416932,4169.32,301
417051,4170.51,293
417161,4171.61,213
417260,4172.6,290
417368,4173.68,304
417486,4174.86,219
417597,4175.97,316
417725,4177.25,274
417851,4178.51,288
417989,4179.89,237
418125,4181.25,323
418255,4182.55,262
418379,4183.79,262
418497,4184.97,304
418617,4186.17,307
418740,4187.4,262
418858,4188.58,343
418982,4189.82,263
419113,4191.13,333
419248,4192.48,268
419363,4193.63,246
419467,4194.67,285
419552,4195.52,315
419629,4196.29,348
419700,4197.0,250
419771,4197.71,285
419840,4198.4,339
419910,4199.1,407
419983,4199.83,337
420064,4200.64,333
420148,4201.48,320
420229,4202.29,325
420309,4203.09,298
420386,4203.86,285
420463,4204.63,278
420537,4205.37,283
420611,4206.11,266
420685,4206.85,270
420758,4207.58,249
420829,4208.29,209
420901,4209.01,261
420975,4209.75,284
421054,4210.54,306
421148,4211.48,266
421234,4212.34,287
421319,4213.19,348
421416,4214.16,292
421514,4215.14,249
421604,4216.04,233
421695,4216.95,341
421797,4217.97,303
421895,4218.95,225
421988,4219.88,262
422083,4220.83,316
422182,4221.82,293
422282,4222.82,296
422387,4223.87,274
422494,4224.94,203
422594,4225.94,287
422700,4227.0,319
422801,4228.01,254
422897,4228.97,289
423003,4230.03,323
423110,4231.1,255
423216,4232.16,306
423329,4233.29,320
423442,4234.42,256
423552,4235.52,286
423662,4236.62,276
423765,4237.65,251
423867,4238.67,294
423968,4239.68,338
424075,4240.75,230
424175,4241.75,288
424281,4242.81,321
424398,4243.98,268
424518,4245.18,337
424639,4246.39,301
424769,4247.69,330
424895,4248.95,272
425020,4250.2,282
425145,4251.45,297
425270,4252.7,245
425388,4253.88,311
425519,4255.19,276
425654,4256.54,255
425794,4257.94,243
425930,4259.3,258
426081,4260.81,327
426211,4262.11,252
426325,4263.25,315
426407,4264.07,284
426479,4264.79,318
426547,4265.47,255
426613,4266.13,343
426675,4266.75,285
426736,4267.36,271
426796,4267.96,346
426859,4268.59,367
426928,4269.28,390
427032,4270.32,400
427122,4271.22,337
427208,4272.08,334
427294,4272.94,305
427382,4273.82,285
427469,4274.69,296
427553,4275.53,287
427637,4276.37,285
427719,4277.19,289
427799,4277.99,291
427878,4278.78,286
427957,4279.57,283
428035,4280.35,283
428113,4281.13,246
428190,4281.9,272
428266,4282.66,233
428342,4283.42,234
428418,4284.18,311
428533,4285.33,364
428638,4286.38,262
428741,4287.41,272
428849,4288.49,310
428951,4289.51,350
429053,4290.53,227
429150,4291.5,292
429250,4292.5,299
429365,4293.65,310
429479,4294.79,243
429595,4295.95,329
429713,4297.13,327
429831,4298.31,261
429947,4299.47,308
430063,4300.63,228
430177,4301.77,315
430294,4302.94,258
430416,4304.16,346
430548,4305.48,267
430677,4306.77,312
430809,4308.09,317
430940,4309.4,265
431048,4310.48,294
431152,4311.52,255
431265,4312.65,247
431389,4313.89,261
431520,4315.2,268
431645,4316.45,280
431767,4317.67,259
431883,4318.83,279
432017,4320.17,330
432143,4321.43,249
432279,4322.79,285
432399,4323.99,255
432526,4325.26,292
432651,4326.51,258
432780,4327.8,328
432905,4329.05,258
433045,4330.45,263
433169,4331.69,283
433301,4333.01,276
433423,4334.23,253
433554,4335.54,251
433692,4336.92,315
433821,4338.21,286
433964,4339.64,324
434094,4340.94,218
434227,4342.27,273
434356,4343.56,231
434477,4344.77,298
434569,4345.69,281
434599,4345.99,93
434642,4346.42,294
434711,4347.11,343
434778,4347.78,333
434847,4348.47,302
434911,4349.11,269
434974,4349.74,288
435035,4350.35,286
435098,4350.98,321
435163,4351.63,332
435231,4352.31,282
435299,4352.99,277
435367,4353.67,284
435435,4354.35,293
435506,4355.06,325
435578,4355.78,272
435653,4356.53,321
435729,4357.29,274
435804,4358.04,256
435881,4358.81,283
435963,4359.63,290
436073,4360.73,332
436173,4361.73,252
436262,4362.62,238
436351,4363.51,297
436443,4364.43,275
436537,4365.37,320
436631,4366.31,271
436731,4367.31,327
436830,4368.3,268
436924,4369.24,265
437033,4370.33,331
437145,4371.45,239
437254,4372.54,299
437367,4373.67,308
437474,4374.74,258
437585,4375.85,283
437706,4377.06,276
437822,4378.22,223
437943,4379.43,298
438051,4380.51,247
438172,4381.72,328
438281,4382.81,267
438400,4384.0,336
438514,4385.14,275
438642,4386.42,341
438766,4387.66,264
438902,4389.02,336
439029,4390.29,270
439159,4391.59,350
439282,4392.82,238
439407,4394.07,339
439539,4395.39,287
439650,4396.5,272
439735,4397.35,342
439813,4398.13,383
439888,4398.88,327
439962,4399.62,265
440034,4400.34,261
440104,4401.04,354
440174,4401.74,350
440248,4402.48,364
440326,4403.26,284
440403,4404.03,264
440479,4404.79,230
440550,4405.5,265
440621,4406.21,313
440693,4406.93,335
440775,4407.75,308
440895,4408.95,342
441003,4410.03,283
441116,4411.16,303
441229,4412.29,342
441335,4413.35,275
441446,4414.46,283
441550,4415.5,276
441658,4416.58,281
441762,4417.62,312
441871,4418.71,322
441985,4419.85,278
442088,4420.88,263
442195,4421.95,337
442311,4423.11,241
442424,4424.24,331
442542,4425.42,297
442654,4426.54,238
442770,4427.7,257
442883,4428.83,264
442997,4429.97,256
443108,4431.08,276
443224,4432.24,250
443336,4433.36,342
443451,4434.51,235
443565,4435.65,289
443685,4436.85,276
443805,4438.05,273
443924,4439.24,270
444045,4440.45,332
444168,4441.68,267
444292,4442.92,309
444412,4444.12,217
444529,4445.29,329
444650,4446.5,262
444772,4447.72,299
444904,4449.04,286
445032,4450.32,341
445156,4451.56,286
445279,4452.79,327
445410,4454.1,272
445539,4455.39,276
445669,4456.69,334
445794,4457.94,228
445920,4459.2,339
446047,4460.47,245
446172,4461.72,282
446300,4463.0,274
446397,4463.97,274
446476,4464.76,294
446551,4465.51,353
446622,4466.22,271
446693,4466.93,283
446761,4467.61,367
446828,4468.28,407
446902,4469.02,362
446984,4469.84,363
447065,4470.65,329
447145,4471.45,307
447232,4472.32,302
447319,4473.19,305
447404,4474.04,302
447489,4474.89,295
447575,4475.75,285
447657,4476.57,299
447738,4477.38,285
447821,4478.21,300
447905,4479.05,299
447988,4479.88,299
448071,4480.71,290
448158,4481.58,301
448243,4482.43,288
448330,4483.3,296
448416,4484.16,299
448500,4485.0,290
448588,4485.88,296
448672,4486.72,290
448756,4487.56,298
448840,4488.4,305
448924,4489.24,298
449007,4490.07,298
449089,4490.89,295
449169,4491.69,309
449250,4492.5,298
449329,4493.29,288
449408,4494.08,300
449487,4494.87,289
449565,4495.65,288
449641,4496.41,300
449717,4497.17,262
449789,4497.89,238
449860,4498.6,227
449929,4499.29,240
449997,4499.97,219
450069,4500.69,278
450149,4501.49,266
450259,4502.59,257
450368,4503.68,237
450485,4504.85,318
450597,4505.97,255
450706,4507.06,310
450818,4508.18,234
450925,4509.25,251
451045,4510.45,254
451164,4511.64,283
451282,4512.82,303
451398,4513.98,258
451519,4515.19,270
451642,4516.42,270
451765,4517.65,287
451888,4518.88,262
452010,4520.1,316
452133,4521.33,221
452253,4522.53,275
452377,4523.77,263
452497,4524.97,272
452623,4526.23,249
452760,4527.6,276
452889,4528.89,314
453015,4530.15,271
453147,4531.47,319
453278,4532.78,296
453413,4534.13,279
453539,4535.39,255
453661,4536.61,304
453784,4537.84,239
453909,4539.09,341
454030,4540.3,282
454139,4541.39,316
454260,4542.6,259
454381,4543.81,284
454499,4544.99,287
454605,4546.05,338
454701,4547.01,242
454788,4547.88,296
454865,4548.65,315
454936,4549.36,372
455004,4550.04,270
455071,4550.71,286
455136,4551.36,330
455200,4552.0,339
455266,4552.66,348
455335,4553.35,349
455408,4554.08,281
455484,4554.84,267
455556,4555.56,244
455626,4556.26,235
455693,4556.93,275
455759,4557.59,294
455823,4558.23,257
455887,4558.87,282
455952,4559.52,276
456018,4560.18,272
456087,4560.87,275
456159,4561.59,272
456237,4562.37,290
456316,4563.16,257
456393,4563.93,265
456469,4564.69,308
456549,4565.49,342
456636,4566.36,332
456724,4567.24,236
456806,4568.06,217
456887,4568.87,288
456968,4569.68,332
457051,4570.51,236
457131,4571.31,249
457211,4572.11,294
457291,4572.91,242
457371,4573.71,213
457451,4574.51,279
457528,4575.28,280
457608,4576.08,334
457721,4577.21,239
457823,4578.23,245
457923,4579.23,313
458019,4580.19,260
458115,4581.15,342
458225,4582.25,319
458345,4583.45,268
458454,4584.54,320
458568,4585.68,264
458679,4586.79,271
458789,4587.89,254
458897,4588.97,319
459007,4590.07,277
459115,4591.15,303
459227,4592.27,318
459341,4593.41,229
459456,4594.56,317
459571,4595.71,222
459688,4596.88,337
459805,4598.05,282
459920,4599.2,336
460035,4600.35,256
460148,4601.48,338
460262,4602.62,222
460376,4603.76,346
460494,4604.94,240
460611,4606.11,296
460731,4607.31,270
460830,4608.3,371
460913,4609.13,266
460991,4609.91,308
461067,4610.67,385
461146,4611.46,303
461231,4612.31,277
461313,4613.13,264
461396,4613.96,369
461478,4614.78,351
461564,4615.64,265
461651,4616.51,372
461739,4617.39,287
461833,4618.33,234
461936,4619.36,330
462051,4620.51,289
462157,4621.57,294
462261,4622.61,266
462362,4623.62,295
462460,4624.6,267
462556,4625.56,306
462666,4626.66,308
462774,4627.74,294
462888,4628.88,284
463003,4630.03,343
463114,4631.14,241
463222,4632.22,244
463325,4633.25,241
463432,4634.32,330
463546,4635.46,226
463659,4636.59,331
463776,4637.76,233
463895,4638.95,288
464018,4640.18,299
464135,4641.35,234
464252,4642.52,307
464365,4643.65,247
464476,4644.76,323
464591,4645.91,275
464711,4647.11,338
464833,4648.33,248
464959,4649.59,236
465074,4650.74,298
465188,4651.88,289
465300,4653.0,289
465409,4654.09,285
465523,4655.23,287
465648,4656.48,271
465780,4657.8,257
465915,4659.15,300
466040,4660.4,242
466168,4661.68,321
466293,4662.93,258
466418,4664.18,293
466548,4665.48,336
466677,4666.77,279
466801,4668.01,310
466932,4669.32,241
467062,4670.62,287
467184,4671.84,258
467309,4673.09,264
467436,4674.36,302
467548,4675.48,319
467637,4676.37,275
467712,4677.12,312
467781,4677.81,324
467847,4678.47,236
467913,4679.13,239
467975,4679.75,341
468037,4680.37,365
468102,4681.02,373
468174,4681.74,320
468245,4682.45,332
468313,4683.13,311
468378,4683.78,292
468444,4684.44,296
468508,4685.08,244
468570,4685.7,227
468633,4686.33,266
468695,4686.95,274
468756,4687.56,267
468817,4688.17,231
468879,4688.79,263
468940,4689.4,254
469001,4690.01,234
469063,4690.63,265
469125,4691.25,279
469187,4691.87,245
469252,4692.52,280
469318,4693.18,256
469384,4693.84,237
469450,4694.5,231
469516,4695.16,280
469582,4695.82,302
469652,4696.52,319
469728,4697.28,305
469815,4698.15,320
469902,4699.02,239
469983,4699.83,279
470061,4700.61,264
470144,4701.44,345
470239,4702.39,316
470327,4703.27,248
470412,4704.12,273
470497,4704.97,296
470594,4705.94,344
470687,4706.87,228
470774,4707.74,304
470866,4708.66,286
470957,4709.57,214
471046,4710.46,245
471135,4711.35,325
471224,4712.24,248
471305,4713.05,303
471383,4713.83,348
471461,4714.61,328
471559,4715.59,308
471642,4716.42,237
471722,4717.22,304
471800,4718.0,294
471882,4718.82,340
471961,4719.61,254
472038,4720.38,272
472114,4721.14,321
472189,4721.89,293
472264,4722.64,280
472344,4723.44,303
472421,4724.21,274
472496,4724.96,289
472571,4725.71,335
472646,4726.46,328
472724,4727.24,297
472806,4728.06,292
472885,4728.85,262
472962,4729.62,265
473038,4730.38,307
473113,4731.13,321
473190,4731.9,286
473268,4732.68,271
473346,4733.46,245
473424,4734.24,292
473507,4735.07,326
473595,4735.95,272
473684,4736.84,275
473770,4737.7,212
473856,4738.56,294
473947,4739.47,294
474042,4740.42,241
474145,4741.45,296
474250,4742.5,245
474352,4743.52,294
474455,4744.55,279
474556,4745.56,239
474651,4746.51,277
474748,4747.48,315
474861,4748.61,280
474964,4749.64,299
475064,4750.64,287
475165,4751.65,227
475261,4752.61,272
475358,4753.58,283
475449,4754.49,240
475541,4755.41,314
475640,4756.4,285
475730,4757.3,262
475831,4758.31,304
475916,4759.16,298
475996,4759.96,351
476078,4760.78,389
476178,4761.78,281
476273,4762.73,332
476365,4763.65,350
476455,4764.55,272
476551,4765.51,362
476640,4766.4,257
476732,4767.32,268
476830,4768.3,352
476924,4769.24,280
477024,4770.24,288
477134,4771.34,301
477252,4772.52,288
477366,4773.66,343
477479,4774.79,298
477589,4775.89,233
477698,4776.98,305
477815,4778.15,297
477931,4779.31,332
478048,4780.48,238
478163,4781.63,297
478291,4782.91,239
478419,4784.19,286
478546,4785.46,275
478672,4786.72,303
478797,4787.97,258
478921,4789.21,296
479048,4790.48,262
479175,4791.75,233
479299,4792.99,328
479430,4794.3,236
479556,4795.56,316
479689,4796.89,326
479822,4798.22,291
479946,4799.46,326
480068,4800.68,279
480193,4801.93,326
480317,4803.17,274
480440,4804.4,308
480567,4805.67,286
480696,4806.96,335
480824,4808.24,249
480952,4809.52,263
481076,4810.76,314
481201,4812.01,242
481325,4813.25,333
481447,4814.47,265
481568,4815.68,330
481692,4816.92,225
481819,4818.19,327
481945,4819.45,254
482065,4820.65,272
482188,4821.88,265
482307,4823.07,327
482424,4824.24,237
482545,4825.45,317
482665,4826.65,274
482778,4827.78,310
482894,4828.94,239
482984,4829.84,273
483063,4830.63,287
483137,4831.37,323
483211,4832.11,257
483283,4832.83,270
483352,4833.52,285
483419,4834.19,285
483487,4834.87,354
483559,4835.59,294
483637,4836.37,339
483714,4837.14,258
483790,4837.9,285
483863,4838.63,249
483932,4839.32,239
484001,4840.01,254
484070,4840.7,313
484140,4841.4,270
484220,4842.2,241
484308,4843.08,294
484401,4844.01,278
484494,4844.94,282
484583,4845.83,325
484673,4846.73,278
484764,4847.64,275
484849,4848.49,247
484932,4849.32,263
485016,4850.16,298
485104,4851.04,271
485201,4852.01,226
485295,4852.95,208
485390,4853.9,334
485486,4854.86,216
485577,4855.77,255
485672,4856.72,312
485778,4857.78,261
485880,4858.8,273
485984,4859.84,306
486089,4860.89,270
486194,4861.94,303
486309,4863.09,285
486427,4864.27,305
486542,4865.42,284
486656,4866.56,316
486770,4867.7,275
486880,4868.8,328
486990,4869.9,261
487096,4870.96,274
487209,4872.09,272
487325,4873.25,268
487439,4874.39,329
487556,4875.56,271
487673,4876.73,298
487792,4877.92,266
487915,4879.15,293
488039,4880.39,278
488160,4881.6,279
488278,4882.78,275
488394,4883.94,280
488513,4885.13,258
488629,4886.29,338
488747,4887.47,253
488862,4888.62,268
488985,4889.85,238
489094,4890.94,289
489190,4891.9,247
489274,4892.74,311
489348,4893.48,352
489419,4894.19,338
489493,4894.93,277
489566,4895.66,263
489634,4896.34,262
489700,4897.0,273
489764,4897.64,256
489828,4898.28,303
489893,4898.93,365
489965,4899.65,374
490077,4900.77,345
490180,4901.8,341
490280,4902.8,308
490377,4903.77,311
490475,4904.75,302
490574,4905.74,313
490670,4906.7,306
490764,4907.64,295
490858,4908.58,303
490948,4909.48,297
491037,4910.37,294
491122,4911.22,301
491207,4912.07,295
491293,4912.93,285
491378,4913.78,284
491462,4914.62,285
491548,4915.48,269
491633,4916.33,245
491713,4917.13,227
491791,4917.91,259
491870,4918.7,276
491955,4919.55,264
492045,4920.45,314
492142,4921.42,233
492240,4922.4,239
492337,4923.37,312
492440,4924.4,263
492544,4925.44,254
492644,4926.44,273
492746,4927.46,292
492846,4928.46,237
492944,4929.44,311
493044,4930.44,294
493144,4931.44,247
493244,4932.44,331
493343,4933.43,248
493443,4934.43,331
493555,4935.55,276
493663,4936.63,337
493775,4937.75,254
493881,4938.81,261
493989,4939.89,225
494096,4940.96,312
494203,4942.03,229
494311,4943.11,303
494428,4944.28,346
494543,4945.43,243
494656,4946.56,278
494767,4947.67,222
494884,4948.84,317
494985,4949.85,292
495069,4950.69,312
495146,4951.46,338
495220,4952.2,302
495296,4952.96,288
495371,4953.71,297
495444,4954.44,320
495522,4955.22,349
495601,4956.01,341
495682,4956.82,299
495764,4957.64,308
495843,4958.43,253
495919,4959.19,253
495999,4959.99,370
496088,4960.88,334
496196,4961.96,270
496290,4962.9,267
496385,4963.85,325
496480,4964.8,264
496575,4965.75,333
496677,4966.77,265
496773,4967.73,273
496870,4968.7,337
496969,4969.69,334
497068,4970.68,228
497167,4971.67,257
497265,4972.65,214
497363,4973.63,249
497467,4974.67,264
497573,4975.73,242
497680,4976.8,260
497787,4977.87,297
497897,4978.97,251
498004,4980.04,292
498107,4981.07,274
498208,4982.08,270
498315,4983.15,253
498426,4984.26,324
498541,4985.41,254
498653,4986.53,296
498769,4987.69,239
498885,4988.85,345
499006,4990.06,223
499130,4991.3,319
499252,4992.52,299
499375,4993.75,291
499500,4995.0,252
499627,4996.27,250
499754,4997.54,313
499878,4998.78,280
500002,5000.02,354
500125,5001.25,285
500249,5002.49,306
500370,5003.7,330
500501,5005.01,261
500610,5006.1,309
500699,5006.99,376
500781,5007.81,353
500858,5008.58,279
500935,5009.35,348
501012,5010.12,378
501113,5011.13,375
501226,5012.26,380
501324,5013.24,259
501409,5014.09,251
501487,5014.87,256
501563,5015.63,308
501638,5016.38,399
501717,5017.17,388
501840,5018.4,389
501953,5019.53,328
502065,5020.65,290
502172,5021.72,291
502276,5022.76,277
502375,5023.75,251
502469,5024.69,272
502566,5025.66,287
502679,5026.79,286
502790,5027.9,320
502897,5028.97,283
503001,5030.01,316
503108,5031.08,246
503212,5032.12,233
503319,5033.19,283
503429,5034.29,241
503541,5035.41,298
503646,5036.46,259
503754,5037.54,320
503863,5038.63,297
503969,5039.69,267
504076,5040.76,295
504186,5041.86,272
504291,5042.91,320
504399,5043.99,295
504508,5045.08,259
504615,5046.15,301
504724,5047.24,287
504832,5048.32,223
504943,5049.43,298
505054,5050.54,306
505165,5051.65,230
505273,5052.73,309
505380,5053.8,323
505490,5054.9,240
505599,5055.99,271
505710,5057.1,273
505824,5058.24,343
505943,5059.43,243
506061,5060.61,330
506179,5061.79,293
506299,5062.99,321
506418,5064.18,271
506529,5065.29,302
506645,5066.45,229
506761,5067.61,333
506881,5068.81,241
507001,5070.01,278
507126,5071.26,246
507248,5072.48,267
507367,5073.67,233
507487,5074.87,319
507600,5076.0,285
507691,5076.91,309
507775,5077.75,371
507851,5078.51,338
507928,5079.28,276
508002,5080.02,297
508073,5080.73,337
508145,5081.45,383
508220,5082.2,370
508298,5082.98,337
508376,5083.76,331
508456,5084.56,304
508534,5085.34,275
508611,5086.11,319
508688,5086.88,309
508769,5087.69,310
508850,5088.5,306
508932,5089.32,306
509012,5090.12,298
509094,5090.94,304
509176,5091.76,307
509258,5092.58,303
509340,5093.4,307
509421,5094.21,300
509504,5095.04,310
509585,5095.85,305
509666,5096.66,305
509747,5097.47,310
509827,5098.27,305
509906,5099.06,303
509985,5099.85,306
510064,5100.64,311
510143,5101.43,298
510221,5102.21,254
510296,5102.96,231
510368,5103.68,216
510440,5104.4,237
510512,5105.12,318
510584,5105.84,280
510665,5106.65,285
510750,5107.5,214
510836,5108.36,279
510931,5109.31,274
511039,5110.39,229
511141,5111.41,257
511242,5112.42,278
511345,5113.45,252
511447,5114.47,234
511548,5115.48,324
511650,5116.5,246
511751,5117.51,299
511861,5118.61,290
511974,5119.74,256
512086,5120.86,292
512200,5122.0,314
512317,5123.17,285
512430,5124.3,271
512539,5125.39,314
512651,5126.51,271
512761,5127.61,272
512876,5128.76,225
512992,5129.92,275
513115,5131.15,249
513232,5132.32,340
513357,5133.57,249
513481,5134.81,323
513605,5136.05,284
513725,5137.25,330
513846,5138.46,307
513969,5139.69,232
514095,5140.95,278
514228,5142.28,275
514357,5143.57,266
514486,5144.86,321
514617,5146.17,293
514745,5147.45,290
514878,5148.78,256
515004,5150.04,282
515132,5151.32,272
515261,5152.61,225
515385,5153.85,335
515510,5155.1,295
515644,5156.44,264
515781,5157.81,320
515900,5159.0,291
516004,5160.04,323
516088,5160.88,322
516158,5161.58,357
516225,5162.25,347
516291,5162.91,366
516361,5163.61,270
516431,5164.31,269
516494,5164.94,287
516556,5165.56,309
516617,5166.17,224
516677,5166.77,275
516736,5167.36,269
516798,5167.98,346
516866,5168.66,340
516970,5169.7,364
517074,5170.74,365
517178,5171.78,316
517273,5172.73,284
517364,5173.64,283
517453,5174.53,299
517540,5175.4,307
517625,5176.25,287
517707,5177.07,301
517786,5177.86,295
517866,5178.66,294
517946,5179.46,276
518027,5180.27,252
518104,5181.04,212
518178,5181.78,214
518251,5182.51,261
518321,5183.21,273
518400,5184.0,328
518506,5185.06,298
518588,5185.88,276
518667,5186.67,287
518756,5187.56,354
518876,5188.76,367
518981,5189.81,246
519085,5190.85,287
519184,5191.84,319
519293,5192.93,295
519399,5193.99,251
519504,5195.04,300
519613,5196.13,284
519720,5197.2,296
519833,5198.33,303
519945,5199.45,243
520051,5200.51,260
520163,5201.63,295
520270,5202.7,262
520375,5203.75,342
520482,5204.82,296
520587,5205.87,263
520700,5207.0,339
520818,5208.18,293
520925,5209.25,318
521051,5210.51,297
521176,5211.76,248
521294,5212.94,313
521414,5214.14,231
521530,5215.3,283
521648,5216.48,229
521764,5217.64,277
521863,5218.63,293
521947,5219.47,326
522026,5220.26,340
522104,5221.04,323
522183,5221.83,273
522259,5222.59,304
522333,5223.33,386
522407,5224.07,403
522495,5224.95,372
522593,5225.93,338
522689,5226.89,320
522777,5227.77,230
522858,5228.58,270
522939,5229.39,336
523021,5230.21,314
523113,5231.13,255
523198,5231.98,214
523279,5232.79,234
523364,5233.64,320
523453,5234.53,246
523549,5235.49,327
523646,5236.46,333
523742,5237.42,269
523839,5238.39,245
523938,5239.38,264
524038,5240.38,295
524141,5241.41,283
524242,5242.42,283
524349,5243.49,242
524453,5244.53,271
524551,5245.51,286
524657,5246.57,317
524762,5247.62,255
524865,5248.65,256
524970,5249.7,331
525078,5250.78,239
525186,5251.86,301
525296,5252.96,276
525407,5254.07,308
525520,5255.2,250
525633,5256.33,300
525744,5257.44,278
525854,5258.54,339
525970,5259.7,281
526085,5260.85,351
526200,5262.0,284
526312,5263.12,273
526426,5264.26,275
526544,5265.44,331
526662,5266.62,276
526759,5267.59,318
526845,5268.45,398
526924,5269.24,265
527002,5270.02,278
527079,5270.79,361
527160,5271.6,367
527265,5272.65,419
527362,5273.62,387
527461,5274.61,318
527554,5275.54,334
527644,5276.44,264
527727,5277.27,272
527808,5278.08,243
527886,5278.86,260
527963,5279.63,283
528044,5280.44,350
528153,5281.53,304
528252,5282.52,272
528348,5283.48,318
528451,5284.51,275
528551,5285.51,227
528652,5286.52,341
528757,5287.57,282
528858,5288.58,293
528960,5289.6,238
529065,5290.65,267
529172,5291.72,304
529275,5292.75,311
529380,5293.8,247
529484,5294.84,316
529592,5295.92,294
529697,5296.97,293
529804,5298.04,282
529908,5299.08,297
530016,5300.16,310
530125,5301.25,228
530232,5302.32,318
530343,5303.43,260
530449,5304.49,265
530561,5305.61,288
530671,5306.71,230
530779,5307.79,319
530893,5308.93,266
531009,5310.09,356
531130,5311.3,235
531245,5312.45,287
531364,5313.64,294
531478,5314.78,303
531596,5315.96,281
531714,5317.14,265
531829,5318.29,332
531942,5319.42,286
532054,5320.54,327
532175,5321.75,296
532289,5322.89,217
532391,5323.91,318
532479,5324.79,256
532557,5325.57,318
532631,5326.31,369
532704,5327.04,413
532783,5327.83,320
532861,5328.61,294
532930,5329.3,228
532999,5329.99,288
533066,5330.66,319
533133,5331.33,358
533206,5332.06,373
533321,5333.21,360
533432,5334.32,349
533533,5335.33,305
533630,5336.3,304
533723,5337.23,300
533814,5338.14,296
533904,5339.04,289
533991,5339.91,294
534077,5340.77,307
534163,5341.63,310
534248,5342.48,274
534331,5343.31,241
534412,5344.12,241
534491,5344.91,259
534572,5345.72,313
534657,5346.57,263
534746,5347.46,248
534838,5348.38,251
534931,5349.31,290
535027,5350.27,258
535124,5351.24,269
535223,5352.23,294
535326,5353.26,279
535427,5354.27,268
535528,5355.28,235
535628,5356.28,294
535732,5357.32,286
535837,5358.37,300
535943,5359.43,237
536045,5360.45,286
536152,5361.52,300
536261,5362.61,235
536376,5363.76,256
536489,5364.89,308
536603,5366.03,277
536715,5367.15,255
536825,5368.25,311
536937,5369.37,242
537051,5370.51,313
537164,5371.64,269
537272,5372.72,294
537382,5373.82,277
537492,5374.92,313
537606,5376.06,303
537723,5377.23,274
537842,5378.42,268
537955,5379.55,336
538070,5380.7,301
538184,5381.84,288
538302,5383.02,347
538418,5384.18,229
538536,5385.36,344
538653,5386.53,261
538768,5387.68,277
538892,5388.92,304
539008,5390.08,265
539133,5391.33,307
539254,5392.54,265
539369,5393.69,326
539482,5394.82,240
539573,5395.73,314
539654,5396.54,359
539730,5397.3,346
539808,5398.08,285
539883,5398.83,270
539956,5399.56,355
540028,5400.28,346
540109,5401.09,377
540189,5401.89,347
540267,5402.67,323
540343,5403.43,314
540418,5404.18,295
540496,5404.96,305
540574,5405.74,304
540654,5406.54,307
540732,5407.32,314
540812,5408.12,299
540894,5408.94,298
540975,5409.75,305
541060,5410.6,301
541143,5411.43,306
541225,5412.25,307
541307,5413.07,300
541387,5413.87,300
541467,5414.67,299
541547,5415.47,311
541627,5416.27,303
541708,5417.08,304
541787,5417.87,306
541866,5418.66,311
541944,5419.44,308
542020,5420.2,292
542096,5420.96,306
542171,5421.71,308
542247,5422.47,299
542322,5423.22,292
542401,5424.01,301
542481,5424.81,307
542560,5425.6,308
542637,5426.37,296
542711,5427.11,305
542784,5427.84,254
542854,5428.54,244
542923,5429.23,211
542988,5429.88,224
543053,5430.53,268
543116,5431.16,228
543180,5431.8,201
543252,5432.52,270
543331,5433.31,337
543450,5434.5,320
543561,5435.61,266
543675,5436.75,293
543780,5437.8,289
543882,5438.82,325
543981,5439.81,294
544084,5440.84,304
544187,5441.87,274
544289,5442.89,270
544389,5443.89,274
544490,5444.9,252
544598,5445.98,322
544707,5447.07,236
544818,5448.18,327
544935,5449.35,227
545052,5450.52,298
545171,5451.71,264
545296,5452.96,241
545416,5454.16,304
545540,5455.4,274
545661,5456.61,244
545785,5457.85,303
545915,5459.15,341
546052,5460.52,281
546183,5461.83,344
546309,5463.09,266
546448,5464.48,279
546574,5465.74,297
546668,5466.68,313
546750,5467.5,334
546826,5468.26,323
546900,5469.0,262
546972,5469.72,279
547041,5470.41,321
547111,5471.11,383
547200,5472.0,410
547299,5472.99,385
547392,5473.92,318
547485,5474.85,302
547578,5475.78,314
547672,5476.72,319
547765,5477.65,304
547857,5478.57,316
547949,5479.49,317
548042,5480.42,308
548135,5481.35,307
548226,5482.26,311
548320,5483.2,313
548410,5484.1,321
548500,5485.0,322
548590,5485.9,307
548680,5486.8,318
548766,5487.66,323
548853,5488.53,321
548938,5489.38,316
549019,5490.19,306
549097,5490.97,318
549174,5491.74,271
549247,5492.47,255
549316,5493.16,238
549383,5493.83,242
549447,5494.47,260
549509,5495.09,267
549570,5495.7,271
549630,5496.3,402
549692,5496.92,420
549755,5497.55,189
549817,5498.17,180
549879,5498.79,238
549940,5499.4,249
550002,5500.02,219
550062,5500.62,215
550123,5501.23,273
550183,5501.83,277
550243,5502.43,275
550302,5503.02,233
550362,5503.62,260
550422,5504.22,230
550481,5504.81,239
550541,5505.41,267
550600,5506.0,231
550660,5506.6,270
550720,5507.2,242
550780,5507.8,301
550842,5508.42,310
550907,5509.07,298
550978,5509.78,266
551051,5510.51,265
551125,5511.25,242
551199,5511.99,264
551272,5512.72,265
551347,5513.47,291
551424,5514.24,275
551508,5515.08,306
551590,5515.9,224
551673,5516.73,249
551754,5517.54,338
551844,5518.44,351
551938,5519.38,243
552023,5520.23,259
552108,5521.08,332
552195,5521.95,249
552283,5522.83,266
552371,5523.71,291
552463,5524.63,268
552555,5525.55,305
552653,5526.53,290
552750,5527.5,229
552837,5528.37,241
552920,5529.2,300
553008,5530.08,342
553088,5530.88,264
553169,5531.69,294
553249,5532.49,343
553338,5533.38,342
553447,5534.47,304
553541,5535.41,233
553627,5536.27,341
553716,5537.16,343
553802,5538.02,275
553889,5538.89,279
553978,5539.78,346
554067,5540.67,233
554152,5541.52,270
554237,5542.37,304
554321,5543.21,262
554403,5544.03,229
554485,5544.85,315
554567,5545.67,290
554648,5546.48,240
554729,5547.29,283
554813,5548.13,322
554899,5548.99,195
554985,5549.85,239
555071,5550.71,319
555161,5551.61,330
555248,5552.48,237
555334,5553.34,297
555424,5554.24,347
555508,5555.08,243
555589,5555.89,265
555665,5556.65,296
555743,5557.43,322
555825,5558.25,252
555904,5559.04,292
555981,5559.81,353
556060,5560.6,369
556146,5561.46,370
556233,5562.33,282
556318,5563.18,262
556399,5563.99,242
556477,5564.77,242
556556,5565.56,324
556637,5566.37,252
556716,5567.16,256
556796,5567.96,292
556878,5568.78,288
556959,5569.59,229
557044,5570.44,277
557128,5571.28,312
557222,5572.22,313
557313,5573.13,259
557402,5574.02,262
557492,5574.92,274
557587,5575.87,228
557675,5576.75,251
557765,5577.65,307
557859,5578.59,283
557948,5579.48,222
558041,5580.41,336
558143,5581.43,340
558242,5582.42,237
558333,5583.33,228
558427,5584.27,325
558517,5585.17,229
558610,5586.1,328
558701,5587.01,290
558789,5587.89,266
558885,5588.85,294
558986,5589.86,332
559081,5590.81,248
559177,5591.77,330
559283,5592.83,318
559384,5593.84,233
559488,5594.88,344
559612,5596.12,253
559733,5597.33,226
559850,5598.5,343
559963,5599.63,273
560072,5600.72,300
560182,5601.82,285
560286,5602.86,234
560374,5603.74,310
560456,5604.56,365
560533,5605.33,338
560609,5606.09,282
560685,5606.85,372
560762,5607.62,396
560849,5608.49,333
560940,5609.4,321
561026,5610.26,301
561107,5611.07,267
561185,5611.85,249
561259,5612.59,261
561332,5613.32,255
561403,5614.03,354
561476,5614.76,330
561590,5615.9,348
561690,5616.9,250
561785,5617.85,208
561870,5618.7,229
561951,5619.51,254
562033,5620.33,290
562123,5621.23,322
562223,5622.23,270
562317,5623.17,270
562414,5624.14,275
562514,5625.14,289
562612,5626.12,251
562707,5627.07,287
562806,5628.06,235
562904,5629.04,337
563001,5630.01,248
563094,5630.94,277
563189,5631.89,349
563287,5632.87,320
563383,5633.83,234
563482,5634.82,342
563584,5635.84,268
563687,5636.87,224
563797,5637.97,288
563907,5639.07,278
564018,5640.18,287
564131,5641.31,224
564239,5642.39,333
564351,5643.51,256
564458,5644.58,282
564564,5645.64,219
564672,5646.72,331
564778,5647.78,253
564886,5648.86,327
564997,5649.97,324
565106,5651.06,269
565212,5652.12,281
565319,5653.19,290
565426,5654.26,250
565539,5655.39,302
565646,5656.46,243
565754,5657.54,289
565869,5658.69,235
565980,5659.8,306
566095,5660.95,277
566197,5661.97,263
566284,5662.84,295
566365,5663.65,374
566444,5664.44,317
566528,5665.28,241
566611,5666.11,260
566691,5666.91,375
566769,5667.69,311
566851,5668.51,282
566942,5669.42,378
567036,5670.36,279
567133,5671.33,277
567236,5672.36,299
567340,5673.4,250
567438,5674.38,253
567543,5675.43,304
567648,5676.48,266
567747,5677.47,303
567847,5678.47,332
567946,5679.46,264
568038,5680.38,260
568128,5681.28,360
568218,5682.18,286
568309,5683.09,262
568398,5683.98,230
568503,5685.03,347
568612,5686.12,264
568714,5687.14,279
568823,5688.23,277
568936,5689.36,240
569040,5690.4,298
569144,5691.44,319
569246,5692.46,210
569345,5693.45,311
569442,5694.42,325
569537,5695.37,227
569639,5696.39,288
569758,5697.58,311
569875,5698.75,282
569995,5699.95,269
570109,5701.09,241
570221,5702.21,287
570331,5703.31,263
570432,5704.32,301
570531,5705.31,320
570639,5706.39,242
570741,5707.41,262
570846,5708.46,377
570956,5709.56,243
571056,5710.56,267
571149,5711.49,382
571237,5712.37,297
571321,5713.21,213
571410,5714.1,360
571492,5714.92,280
571571,5715.71,243
571648,5716.48,277
571724,5717.24,339
571808,5718.08,333
571887,5718.87,289
571963,5719.63,337
572039,5720.39,355
572121,5721.21,351
572205,5722.05,265
572286,5722.86,203
572364,5723.64,218
572442,5724.42,362
572519,5725.19,288
572599,5725.99,274
572679,5726.79,264
572762,5727.62,288
572847,5728.47,300
572939,5729.39,252
573026,5730.26,231
573123,5731.23,300
573225,5732.25,261
573319,5733.19,205
573410,5734.1,238
573499,5734.99,323
573590,5735.9,267
573683,5736.83,218
573769,5737.69,218
573861,5738.61,356
573956,5739.56,250
574046,5740.46,243
574140,5741.4,372
574235,5742.35,250
574326,5743.26,268
574422,5744.22,296
574521,5745.21,221
574613,5746.13,264
574705,5747.05,386
574804,5748.04,303
574900,5749.0,232
574996,5749.96,323
575104,5751.04,330
575208,5752.08,265
575308,5753.08,343
575416,5754.16,306
575528,5755.28,236
575636,5756.36,321
575750,5757.5,259
575859,5758.59,319
575978,5759.78,293
576092,5760.92,231
576188,5761.88,286
576280,5762.8,364
576378,5763.78,274
576466,5764.66,261
576550,5765.5,345
576628,5766.28,289
576704,5767.04,313
576779,5767.79,325
576854,5768.54,371
576913,5769.13,250
577029,5770.29,343
577122,5771.22,344
577222,5772.22,241
577317,5773.17,341
577419,5774.19,354
577520,5775.2,269
577619,5776.19,316
577720,5777.2,332
577823,5778.23,252
577918,5779.18,213
578016,5780.16,300
578114,5781.14,306
578211,5782.11,218
578303,5783.03,237
578396,5783.96,356
578496,5784.96,261
578589,5785.89,263
578681,5786.81,332
578775,5787.75,280
578870,5788.7,201
578959,5789.59,272
579050,5790.5,307
579154,5791.54,268
579248,5792.48,219
579345,5793.45,339
579443,5794.43,275
579538,5795.38,251
579626,5796.26,358
579714,5797.14,292
579797,5797.97,294
579877,5798.77,398
579963,5799.63,320
580058,5800.58,224
580143,5801.43,283
580227,5802.27,387
580312,5803.12,300
580402,5804.02,226
580492,5804.92,357
580586,5805.86,325
580684,5806.84,255
580781,5807.81,338
580880,5808.8,237
580976,5809.76,271
581080,5810.8,320
581186,5811.86,251
581290,5812.9,242
581392,5813.92,334
581496,5814.96,303
581599,5815.99,260
581698,5816.98,278
581803,5818.03,307
581917,5819.17,292
582025,5820.25,234
582130,5821.3,324
582241,5822.41,320
582349,5823.49,209
582447,5824.47,262
582544,5825.44,315
582648,5826.48,288
582757,5827.57,257
582865,5828.65,289
582979,5829.79,268
583089,5830.89,275
583205,5832.05,276
583318,5833.18,249
583417,5834.17,258
583512,5835.12,340
583613,5836.13,268
583703,5837.03,331
583785,5837.85,340
583864,5838.64,387
583945,5839.45,258
584023,5840.23,247
584099,5840.99,358
584174,5841.74,410
584252,5842.52,368
584332,5843.32,290
584413,5844.13,280
584490,5844.9,268
584563,5845.63,251
584633,5846.33,260
584702,5847.02,262
584770,5847.7,272
584838,5848.38,248
584915,5849.15,264
585006,5850.06,281
585109,5851.09,310
585207,5852.07,293
585307,5853.07,288
585408,5854.08,289
585504,5855.04,228
585601,5856.01,225
585693,5856.93,229
585781,5857.81,242
585870,5858.7,306
585956,5859.56,234
586041,5860.41,277
586132,5861.32,277
586230,5862.3,305
586323,5863.23,248
586416,5864.16,292
586512,5865.12,337
586613,5866.13,255
586710,5867.1,255
586810,5868.1,333
586918,5869.18,261
587023,5870.23,231
587127,5871.27,282
587229,5872.29,239
587327,5873.27,279
587425,5874.25,321
587530,5875.3,252
587627,5876.27,274
587725,5877.25,367
587827,5878.27,235
587923,5879.23,252
588012,5880.12,337
588105,5881.05,279
588193,5881.93,244
588279,5882.79,356
588360,5883.6,409
588441,5884.41,327
588521,5885.21,273
588598,5885.98,337
588674,5886.74,375
588755,5887.55,311
588837,5888.37,212
588914,5889.14,243
588991,5889.91,341
589067,5890.67,376
589153,5891.53,244
589238,5892.38,214
589326,5893.26,334
589417,5894.17,246
589504,5895.04,207
589596,5895.96,338
589698,5896.98,299
589802,5898.02,232
589898,5898.98,279
589993,5899.93,310
590097,5900.97,324
590194,5901.94,250
590286,5902.86,298
590381,5903.81,286
590472,5904.72,222
590558,5905.58,237
590647,5906.47,357
590736,5907.36,304
590826,5908.26,233
590916,5909.16,272
591011,5910.11,287
591106,5911.06,214
591202,5912.02,273
591302,5913.02,315
591406,5914.06,248
591503,5915.03,247
591603,5916.03,379
591706,5917.06,280
591806,5918.06,267
591908,5919.08,311
592015,5920.15,226
592117,5921.17,273
592219,5922.19,354
592327,5923.27,255
592421,5924.21,281
592515,5925.15,332
592602,5926.02,265
592683,5926.83,328
592762,5927.62,359
592842,5928.42,286
592920,5929.2,276
592999,5929.99,361
593078,5930.78,355
593165,5931.65,298
593251,5932.51,212
593330,5933.3,211
593407,5934.07,243
593484,5934.84,315
593564,5935.64,289
593649,5936.49,256
593733,5937.33,280
593823,5938.23,286
593928,5939.28,287
594024,5940.24,233
594122,5941.22,364
594227,5942.27,322
594330,5943.3,254
594427,5944.27,255
594528,5945.28,332
594629,5946.29,272
594726,5947.26,247
594818,5948.18,258
594911,5949.11,291
595008,5950.08,255
595103,5951.03,208
595196,5951.96,277
595294,5952.94,279
595395,5953.95,269
595492,5954.92,272
595589,5955.89,334
595688,5956.88,259
595781,5957.81,291
595885,5958.85,348
595984,5959.84,274
596079,5960.79,274
596187,5961.87,307
596291,5962.91,271
596390,5963.9,247
596485,5964.85,377
596573,5965.73,286
596653,5966.53,281
596734,5967.34,389
596843,5968.43,303
596946,5969.46,333
597042,5970.42,327
597132,5971.32,236
597219,5972.19,350
597305,5973.05,375
597396,5973.96,208
597486,5974.86,306
597577,5975.77,258
597669,5976.69,279
597771,5977.71,317
597870,5978.7,239
597962,5979.62,260
598057,5980.57,324
598155,5981.55,289
598245,5982.45,253
598332,5983.32,356
598425,5984.25,282
598520,5985.2,218
598609,5986.09,331
598703,5987.03,360
598796,5987.96,218
598884,5988.84,270
598973,5989.73,339
599060,5990.6,279
599147,5991.47,283
599236,5992.36,361
599328,5993.28,235
599420,5994.2,275
599517,5995.17,296
599615,5996.15,240
599713,5997.13,283
599818,5998.18,317
599925,5999.25,263
600027,6000.27,258
600139,6001.39,324
600252,6002.52,205
600359,6003.59,237
600472,6004.72,350
600577,6005.77,288
600666,6006.66,269
600749,6007.49,407
600829,6008.29,322
600917,6009.17,250
600998,6009.98,291
601074,6010.74,373
601149,6011.49,405
601251,6012.51,371
601347,6013.47,328
601438,6014.38,265
601521,6015.21,217
601599,6015.99,210
601679,6016.79,340
601759,6017.59,344
601842,6018.42,208
601924,6019.24,250
602013,6020.13,282
602109,6021.09,287
602200,6022.0,308
602292,6022.92,277
602382,6023.82,209
602470,6024.7,257
602564,6025.64,284
602662,6026.62,245
602756,6027.56,251
602848,6028.48,330
602946,6029.46,287
603038,6030.38,217
603129,6031.29,234
603220,6032.2,305
603319,6033.19,275
603414,6034.14,243
603504,6035.04,252
603602,6036.02,321
603697,6036.97,266
603790,6037.9,222
603883,6038.83,325
603976,6039.76,266
604066,6040.66,238
604160,6041.6,364
604257,6042.57,347
604359,6043.59,226
604460,6044.6,291
604565,6045.65,291
604672,6046.72,213
604771,6047.71,234
604880,6048.8,311
604979,6049.79,286
605065,6050.65,298
605146,6051.46,400
605222,6052.22,244
605298,6052.98,256
605376,6053.76,355
