R-R INTERVAL TROUGHS INDEX, TIME, AMPLITUDE, COMPUTED RESPIRATORY RATE (BREATHS PER MINUTE), BENCHMARK RESPIRATORY RATE (BREATHS PER MINUTE)
100332,1003.32,146, , 
100793,1007.93,142, , 
101577,1015.77,137, , 
101892,1018.92,130, , 
102288,1022.88,116, , 
102444,1024.44,136, , 
103154,1031.54,128, , 
103392,1033.92,121, , 
103553,1035.53,144, , 
104483,1044.83,125, , 
104874,1048.74,86, , 
105107,1051.07,133, , 
105338,1053.38,144, , 
107319,1073.19,85, , 
107622,1076.22,120, , 
107924,1079.24,132, , 
108076,1080.76,103, , 
108233,1082.33,135, , 
108779,1087.79,116, , 
108933,1089.33,126, , 
109320,1093.2,79, , 
109551,1095.51,73, , 
 , , , 13.75, 14.375
110323,1103.23,111, , 
110705,1107.05,70, , 
111091,1110.91,90, , 
111326,1113.26,82, , 
111563,1115.63,158, , 
111722,1117.22,128, , 
111881,1118.81,130, , 
112354,1123.54,104, , 
112511,1125.11,118, , 
112988,1129.88,134, , 
113314,1133.14,74, , 
113478,1134.78,115, , 
113794,1137.94,137, , 
114031,1140.31,135, , 
114352,1143.52,80, , 
114591,1145.91,103, , 
114828,1148.28,135, , 
115304,1153.04,118, , 
115461,1154.61,136, , 
116325,1163.25,79, , 
116633,1166.33,124, , 
116863,1168.63,132, , 
117252,1172.52,140, , 
117490,1174.9,127, , 
 , , , 15.0, 10.0
119655,1196.55,119, , 
119970,1199.7,83, , 
120289,1202.89,138, , 
120597,1205.97,139, , 
120750,1207.5,121, , 
120905,1209.05,162, , 
121223,1212.23,138, , 
124242,1242.42,115, , 
124518,1245.18,140, , 
124690,1246.9,131, , 
125333,1253.33,120, , 
126034,1260.34,122, , 
128032,1280.32,84, , 
128350,1283.5,155, , 
128682,1286.82,142, , 
128848,1288.48,112, , 
 , , , 10.0, 6.25
128931,1289.31,142, , 
129175,1291.75,93, , 
129499,1294.99,115, , 
130091,1300.91,130, , 
131043,1310.43,153, , 
131362,1313.62,124, , 
131603,1316.03,178, , 
131847,1318.47,137, , 
135180,1351.8,83, , 
135458,1354.58,129, , 
135733,1357.33,101, , 
135912,1359.12,114, , 
136175,1361.75,85, , 
136440,1364.4,140, , 
136794,1367.94,151, , 
136966,1369.66,86, , 
137624,1376.24,120, , 
137855,1378.55,151, , 
138084,1380.84,106, , 
138394,1383.94,107, , 
 , , , 12.5, 4.375
140718,1407.18,135, , 
141319,1413.19,101, , 
141572,1415.72,100, , 
141822,1418.22,132, , 
142150,1421.5,110, , 
142388,1423.88,123, , 
142620,1426.2,95, , 
145477,1454.77,105, , 
145734,1457.34,73, , 
146071,1460.71,123, , 
146322,1463.22,150, , 
146648,1466.48,134, , 
146966,1469.66,130, , 
147209,1472.09,139, , 
147455,1474.55,149, , 
147700,1477.0,119, , 
148841,1488.41,110, , 
 , , , 10.625, 5.0
149164,1491.64,131, , 
149409,1494.09,147, , 
149654,1496.54,90, , 
149976,1499.76,72, , 
150318,1503.18,131, , 
150494,1504.94,137, , 
150918,1509.18,120, , 
151168,1511.68,132, , 
151492,1514.92,60, , 
152026,1520.26,134, , 
154535,1545.35,81, , 
154959,1549.59,124, , 
155317,1553.17,91, , 
155496,1554.96,119, , 
155768,1557.68,140, , 
155946,1559.46,81, , 
156365,1563.65,118, , 
156524,1565.24,105, , 
156837,1568.37,93, , 
157074,1570.74,119, , 
157393,1573.93,124, , 
 , , , 13.125, 2.5
159118,1591.18,139, , 
159540,1595.4,129, , 
159710,1597.1,126, , 
160047,1600.47,109, , 
160293,1602.93,150, , 
160530,1605.3,128, , 
160915,1609.15,117, , 
161144,1611.44,117, , 
161461,1614.61,97, , 
163072,1630.72,122, , 
163236,1632.36,145, , 
163483,1634.83,115, , 
163743,1637.43,104, , 
164080,1640.8,147, , 
164417,1644.17,140, , 
164674,1646.74,128, , 
164930,1649.3,116, , 
165178,1651.78,85, , 
165498,1654.98,100, , 
165813,1658.13,115, , 
166127,1661.27,149, , 
 , , , 13.125, 5.0
167388,1673.88,143, , 
167556,1675.56,71, , 
167896,1678.96,96, , 
168066,1680.66,106, , 
168401,1684.01,74, , 
168560,1685.6,132, , 
168881,1688.81,101, , 
169035,1690.35,115, , 
169483,1694.83,78, , 
169860,1698.6,132, , 
170093,1700.93,135, , 
172947,1729.47,135, , 
173195,1731.95,118, , 
173513,1735.13,105, , 
173746,1737.46,148, , 
174070,1740.7,121, , 
177050,1770.5,97, , 
177308,1773.08,101, , 
 , , , 11.25, 4.375
177642,1776.42,130, , 
178544,1785.44,146, , 
179181,1791.81,124, , 
179725,1797.25,140, , 
180459,1804.59,74, , 
180536,1805.36,125, , 
181020,1810.2,87, , 
183725,1837.25,145, , 
184102,1841.02,80, , 
 , , , 5.625, 7.5
186509,1865.09,136, , 
186662,1866.62,118, , 
187118,1871.18,149, , 
187267,1872.67,105, , 
187567,1875.67,150, , 
189788,1897.88,123, , 
189937,1899.37,93, , 
190247,1902.47,95, , 
190495,1904.95,121, , 
190663,1906.63,132, , 
191020,1910.2,137, , 
191483,1914.83,123, , 
191671,1916.71,103, , 
191947,1919.47,138, , 
192194,1921.94,143, , 
192427,1924.27,177, , 
192735,1927.35,123, , 
195634,1956.34,87, , 
195869,1958.69,140, , 
196192,1961.92,129, , 
196770,1967.7,79, , 
197021,1970.21,137, , 
197182,1971.82,103, , 
197498,1974.98,104, , 
 , , , 15.0, 8.125
197939,1979.39,118, , 
198840,1988.4,129, , 
199680,1996.8,158, , 
199903,1999.03,90, , 
201126,2011.26,113, , 
201491,2014.91,76, , 
202066,2020.66,82, , 
202753,2027.53,80, , 
203916,2039.16,97, , 
204310,2043.1,98, , 
204921,2049.21,109, , 
205207,2052.07,78, , 
205718,2057.18,95, , 
 , , , 8.125, 10.625
206539,2065.39,111, , 
208702,2087.02,97, , 
209139,2091.39,127, , 
210764,2107.64,69, , 
211734,2117.34,90, , 
213011,2130.11,78, , 
213240,2132.4,90, , 
213386,2133.86,86, , 
213532,2135.32,84, , 
213747,2137.47,82, , 
213963,2139.63,90, , 
215355,2153.55,80, , 
 , , , 7.5, 8.75
216234,2162.34,71, , 
217114,2171.14,88, , 
217420,2174.2,102, , 
217717,2177.17,117, , 
217936,2179.36,76, , 
221119,2211.19,96, , 
221350,2213.5,90, , 
221572,2215.72,84, , 
221789,2217.89,97, , 
222006,2220.06,68, , 
224215,2242.15,71, , 
 , , , 6.875, 8.125
225371,2253.71,141, , 
225595,2255.95,83, , 
225809,2258.09,74, , 
226025,2260.25,84, , 
226171,2261.71,95, , 
228523,2285.23,70, , 
229295,2292.95,157, , 
229595,2295.95,117, , 
230049,2300.49,109, , 
233048,2330.48,58, , 
233294,2332.94,104, , 
 , , , 6.875, 8.125
236732,2367.32,95, , 
237287,2372.87,101, , 
237440,2374.4,126, , 
237586,2375.86,110, , 
237803,2378.03,158, , 
238021,2380.21,135, , 
238168,2381.68,77, , 
241538,2415.38,64, , 
241702,2417.02,135, , 
 , , , 5.625, 10.625
244675,2446.75,108, , 
244998,2449.98,76, , 
245166,2451.66,119, , 
245483,2454.83,85, , 
245635,2456.35,77, , 
246098,2460.98,98, , 
248489,2484.89,71, , 
248732,2487.32,76, , 
249065,2490.65,80, , 
249309,2493.09,89, , 
249549,2495.49,134, , 
249923,2499.23,103, , 
250145,2501.45,142, , 
250374,2503.74,124, , 
253534,2535.34,62, , 
 , , , 9.375, 9.375
253780,2537.8,67, , 
253943,2539.43,137, , 
254178,2541.78,144, , 
254555,2545.55,90, , 
254777,2547.77,100, , 
257980,2579.8,110, , 
258224,2582.24,101, , 
258389,2583.89,115, , 
258637,2586.37,91, , 
258797,2587.97,143, , 
259098,2590.98,82, , 
259388,2593.88,121, , 
262825,2628.25,124, , 
263074,2630.74,113, , 
263241,2632.41,97, , 
 , , , 9.375, 9.375
263491,2634.91,121, , 
263800,2638.0,102, , 
264092,2640.92,89, , 
267521,2675.21,98, , 
267772,2677.72,87, , 
267941,2679.41,126, , 
268404,2684.04,131, , 
271473,2714.73,90, , 
272157,2721.57,90, , 
272331,2723.31,123, , 
272502,2725.02,97, , 
272742,2727.42,150, , 
 , , , 7.5, 10.625
273264,2732.64,109, , 
273412,2734.12,93, , 
275985,2759.85,101, , 
276238,2762.38,113, , 
276743,2767.43,81, , 
277088,2770.88,101, , 
277322,2773.22,128, , 
277686,2776.86,106, , 
277834,2778.34,77, , 
280678,2806.78,57, , 
280859,2808.59,131, , 
281113,2811.13,95, , 
281363,2813.63,169, , 
281519,2815.19,150, , 
281884,2818.84,137, , 
282027,2820.27,106, , 
282251,2822.51,108, , 
 , , , 10.625, 10.0
285363,2853.63,66, , 
285764,2857.64,129, , 
287092,2870.92,104, , 
287295,2872.95,75, , 
288105,2881.05,66, , 
288839,2888.39,72, , 
289560,2895.6,71, , 
290124,2901.24,130, , 
290669,2906.69,118, , 
 , , , 5.625, 8.125
293134,2931.34,64, , 
293453,2934.53,146, , 
293754,2937.54,118, , 
297393,2973.93,72, , 
297635,2976.35,95, , 
298108,2981.08,94, , 
 , , , 3.75, 8.75
301834,3018.34,95, , 
301993,3019.93,124, , 
302225,3022.25,131, , 
302449,3024.49,126, , 
302666,3026.66,98, , 
302883,3028.83,111, , 
306342,3063.42,65, , 
306586,3065.86,87, , 
306986,3069.86,91, , 
307497,3074.97,85, , 
310857,3108.57,80, , 
311097,3110.97,84, , 
 , , , 7.5, 9.375
311331,3113.31,87, , 
311490,3114.9,139, , 
311938,3119.38,112, , 
314269,3142.69,82, , 
315704,3157.04,101, , 
315955,3159.55,127, , 
316189,3161.89,133, , 
316560,3165.6,144, , 
316710,3167.1,68, , 
320056,3200.56,98, , 
320540,3205.4,106, , 
 , , , 6.875, 9.375
321174,3211.74,130, , 
321411,3214.11,129, , 
324103,3241.03,90, , 
324351,3243.51,65, , 
324600,3246.0,74, , 
324852,3248.52,101, , 
325274,3252.74,83, , 
325446,3254.46,137, , 
325685,3256.85,142, , 
325835,3258.35,97, , 
326118,3261.18,129, , 
326257,3262.57,138, , 
329360,3293.6,84, , 
329631,3296.31,93, , 
329810,3298.1,81, , 
329991,3299.91,112, , 
330316,3303.16,95, , 
330772,3307.72,101, , 
 , , , 11.25, 9.375
331889,3318.89,93, , 
334594,3345.94,118, , 
334820,3348.2,75, , 
335195,3351.95,129, , 
338700,3387.0,67, , 
339026,3390.26,99, , 
339250,3392.5,134, , 
339390,3393.9,96, , 
339529,3395.29,87, , 
339665,3396.65,65, , 
339835,3398.35,64, , 
 , , , 6.875, 10.0
340193,3401.93,68, , 
340406,3404.06,86, , 
341028,3410.28,75, , 
341637,3416.37,72, , 
343642,3436.42,92, , 
344507,3445.07,79, , 
344889,3448.89,77, , 
346068,3460.68,79, , 
347059,3470.59,135, , 
348273,3482.73,78, , 
349477,3494.77,64, , 
 , , , 6.875, 9.375
349700,3497.0,75, , 
353157,3531.57,96, , 
353757,3537.57,124, , 
354054,3540.54,97, , 
356204,3562.04,76, , 
356741,3567.41,90, , 
357120,3571.2,98, , 
 , , , 4.375, 10.0
360346,3603.46,73, , 
361162,3611.62,103, , 
361461,3614.61,91, , 
363558,3635.58,56, , 
363794,3637.94,58, , 
364200,3642.0,113, , 
364420,3644.2,135, , 
364564,3645.64,90, , 
366022,3660.22,92, , 
368767,3687.67,71, , 
 , , , 6.25, 8.75
372644,3726.44,84, , 
372883,3728.83,75, , 
373282,3732.82,141, , 
373508,3735.08,103, , 
373652,3736.52,126, , 
374005,3740.05,81, , 
375575,3755.75,151, , 
378233,3782.33,123, , 
 , , , 5.0, 9.375
380293,3802.93,201, , 
382740,3827.4,88, , 
382903,3829.03,102, , 
383285,3832.85,92, , 
383432,3834.32,104, , 
383647,3836.47,120, , 
383863,3838.63,106, , 
385579,3855.79,90, , 
386859,3868.59,63, , 
387443,3874.43,91, , 
387787,3877.87,67, , 
 , , , 6.875, 10.0
388209,3882.09,91, , 
388354,3883.54,105, , 
390656,3906.56,93, , 
391275,3912.75,95, , 
392157,3921.57,61, , 
392400,3924.0,99, , 
392552,3925.52,102, , 
392772,3927.72,107, , 
392918,3929.18,105, , 
393135,3931.35,109, , 
396657,3966.57,89, , 
397133,3971.33,78, , 
397379,3973.79,90, , 
 , , , 8.125, 11.25
397834,3978.34,131, , 
397977,3979.77,109, , 
401682,4016.82,56, , 
401918,4019.18,84, , 
402079,4020.79,99, , 
402235,4022.35,95, , 
402740,4027.4,107, , 
402882,4028.82,102, , 
404074,4040.74,62, , 
406408,4064.08,82, , 
406646,4066.46,81, , 
406809,4068.09,92, , 
407125,4071.25,126, , 
 , , , 8.125, 10.625
407625,4076.25,134, , 
407975,4079.75,63, , 
408276,4082.76,72, , 
410840,4108.4,100, , 
411166,4111.66,66, , 
411338,4113.38,57, , 
411584,4115.84,115, , 
411881,4118.81,104, , 
412165,4121.65,81, , 
413213,4132.13,107, , 
415435,4154.35,67, , 
415597,4155.97,115, , 
415836,4158.36,123, , 
416071,4160.71,144, , 
416222,4162.22,106, , 
416584,4165.84,118, , 
 , , , 10.0, 10.0
417326,4173.26,71, , 
420098,4200.98,88, , 
420262,4202.62,124, , 
420565,4205.65,68, , 
423799,4237.99,91, , 
424293,4242.93,134, , 
424694,4246.94,100, , 
424932,4249.32,100, , 
425090,4250.9,134, , 
425386,4253.86,125, , 
425672,4256.72,101, , 
425815,4258.15,98, , 
428091,4280.91,63, , 
 , , , 8.125, 8.75
428696,4286.96,103, , 
429671,4296.71,114, , 
429810,4298.1,135, , 
430810,4308.1,94, , 
433129,4331.29,111, , 
433648,4336.48,87, , 
434151,4341.51,89, , 
435040,4350.4,90, , 
 , , , 5.0, 6.875
436913,4369.13,125, , 
437136,4371.36,138, , 
437795,4377.95,113, , 
438377,4383.77,89, , 
440387,4403.87,58, , 
441083,4410.83,80, , 
442356,4423.56,86, , 
442703,4427.03,57, , 
442916,4429.16,72, , 
444037,4440.37,77, , 
445480,4454.8,118, , 
445627,4456.27,97, , 
 , , , 7.5, 11.875
449474,4494.74,68, , 
449699,4496.99,68, , 
449991,4499.91,110, , 
453567,4535.67,146, , 
454077,4540.77,100, , 
 , , , 3.125, 10.0
457768,4577.68,70, , 
457994,4579.94,85, , 
458214,4582.14,139, , 
458424,4584.24,119, , 
458635,4586.35,81, , 
462170,4621.7,105, , 
462412,4624.12,115, , 
462640,4626.4,139, , 
462928,4629.28,100, , 
463069,4630.69,78, , 
464780,4647.8,73, , 
 , , , 6.875, 7.5
465072,4650.72,63, , 
466587,4665.87,101, , 
466895,4668.95,61, , 
467127,4671.27,74, , 
467284,4672.84,87, , 
467581,4675.81,132, , 
467790,4677.9,83, , 
467930,4679.3,73, , 
470458,4704.58,78, , 
471531,4715.31,121, , 
471756,4717.56,127, , 
472114,4721.14,98, , 
472531,4725.31,104, , 
472827,4728.27,73, , 
 , , , 8.75, 9.375
475154,4751.54,95, , 
475697,4756.97,91, , 
476088,4760.88,138, , 
476309,4763.09,94, , 
476591,4765.91,95, , 
477741,4777.41,82, , 
478604,4786.04,74, , 
480920,4809.2,144, , 
481214,4812.14,106, , 
481431,4814.31,114, , 
 , , , 6.25, 10.0
485265,4852.65,73, , 
485436,4854.36,137, , 
485814,4858.14,115, , 
486442,4864.42,70, , 
489574,4895.74,76, , 
489736,4897.36,86, , 
489893,4898.93,103, , 
490460,4904.6,109, , 
490598,4905.98,75, , 
 , , , 5.625, 10.625
493974,4939.74,56, , 
494532,4945.32,116, , 
494673,4946.73,99, , 
495019,4950.19,119, , 
497110,4971.1,90, , 
498591,4985.91,106, , 
498746,4987.46,75, , 
498996,4989.96,73, , 
499939,4999.39,96, , 
501014,5010.14,86, , 
501290,5012.9,78, , 
502290,5022.9,95, , 
502490,5024.9,74, , 
504084,5040.84,55, , 
 , , , 8.75, 9.375
504159,5041.59,87, , 
504614,5046.14,79, , 
504922,5049.22,61, , 
505088,5050.88,94, , 
505319,5053.19,122, , 
505949,5059.49,110, , 
506142,5061.42,57, , 
507544,5075.44,68, , 
509016,5090.16,89, , 
509267,5092.67,86, , 
509796,5097.96,82, , 
510236,5102.36,89, , 
510691,5106.91,81, , 
 , , , 8.125, 9.375
513242,5132.42,86, , 
513643,5136.43,88, , 
513871,5138.71,71, , 
515694,5156.94,84, , 
516617,5166.17,76, , 
518348,5183.48,126, , 
518561,5185.61,112, , 
519138,5191.38,77, , 
519447,5194.47,75, , 
520182,5201.82,67, , 
521175,5211.75,81, , 
521969,5219.69,80, , 
 , , , 7.5, 11.25
522702,5227.02,110, , 
523001,5230.01,73, , 
523497,5234.97,95, , 
523934,5239.34,69, , 
524236,5242.36,56, , 
527220,5272.2,117, , 
527520,5275.2,96, , 
527738,5277.38,83, , 
528714,5287.14,102, , 
529139,5291.39,81, , 
531178,5311.78,93, , 
531406,5314.06,92, , 
531627,5316.27,84, , 
531843,5318.43,78, , 
532061,5320.61,100, , 
 , , , 9.375, 9.375
532282,5322.82,76, , 
533872,5338.72,69, , 
535265,5352.65,123, , 
535423,5354.23,121, , 
535572,5355.72,65, , 
535789,5357.89,112, , 
536669,5366.69,54, , 
539662,5396.62,72, , 
539827,5398.27,103, , 
540057,5400.57,91, , 
540202,5402.02,58, , 
540493,5404.93,99, , 
540712,5407.12,86, , 
541236,5412.36,65, , 
 , , , 8.75, 8.75
544232,5442.32,84, , 
544394,5443.94,112, , 
544556,5445.56,119, , 
544711,5447.11,115, , 
545081,5450.81,140, , 
545875,5458.75,83, , 
546464,5464.64,60, , 
548289,5482.89,80, , 
548907,5489.07,60, , 
549144,5491.44,61, , 
549382,5493.82,111, , 
549537,5495.37,93, , 
549756,5497.56,64, , 
549970,5499.7,100, , 
550182,5501.82,72, , 
550401,5504.01,77, , 
 , , , 10.0, 9.375
553514,5535.14,106, , 
553734,5537.34,80, , 
558068,5580.68,65, , 
558311,5583.11,143, , 
558683,5586.83,90, , 
559104,5591.04,70, , 
559695,5596.95,89, , 
560784,5607.84,70, , 
 , , , 5.0, 8.75
562741,5627.41,77, , 
562906,5629.06,88, , 
563093,5630.93,91, , 
563424,5634.24,85, , 
563566,5635.66,98, , 
563738,5637.38,60, , 
564604,5646.04,66, , 
565262,5652.62,59, , 
567273,5672.73,68, , 
567519,5675.19,82, , 
567751,5677.51,146, , 
567974,5679.74,107, , 
568413,5684.13,75, , 
568947,5689.47,58, , 
 , , , 8.75, 9.375
571776,5717.76,58, , 
572180,5721.8,126, , 
572760,5727.6,57, , 
572974,5729.74,97, , 
574038,5740.38,74, , 
576365,5763.65,102, , 
576601,5766.01,115, , 
576826,5768.26,73, , 
 , , , 5.0, 10.625
580620,5806.2,143, , 
581065,5810.65,55, , 
581488,5814.88,77, , 
582100,5821.0,70, , 
585059,5850.59,143, , 
585435,5854.35,100, , 
586322,5863.22,90, , 
589421,5894.21,65, , 
589662,5896.62,91, , 
 , , , 5.625, 10.625
589820,5898.2,112, , 
590044,5900.44,128, , 
590774,5907.74,72, , 
591414,5914.14,87, , 
592946,5929.46,82, , 
594533,5945.33,119, , 
595052,5950.52,65, , 
595349,5953.49,89, , 
598713,5987.13,63, , 
598882,5988.82,137, , 
599549,5995.49,79, , 
 , , , 6.875, 8.75
599866,5998.66,59, , 
603444,6034.44,76, , 
603988,6039.88,64, , 
604623,6046.23,71, , 
605093,6050.93,58, , 
605776,6057.76,102, , 
605996,6059.96,77, , 
606723,6067.23,87, , 
608583,6085.83,81, , 
 , , , 5.625, 9.375
609853,6098.53,99, , 
610070,6100.7,90, , 
610803,6108.03,89, , 
612840,6128.4,60, , 
613282,6132.82,71, , 
614554,6145.54,123, , 
614983,6149.83,67, , 
615197,6151.97,87, , 
617206,6172.06,76, , 
618477,6184.77,80, , 
 , , , 6.25, 9.375
619264,6192.64,90, , 
619655,6196.55,123, , 
619878,6198.78,102, , 
620093,6200.93,73, , 
620310,6203.1,73, , 
620820,6208.2,73, , 
621121,6211.21,77, , 
625348,6253.48,137, , 
625740,6257.4,122, , 
625968,6259.68,103, , 
 , , , 6.25, 6.25
631100,6311.0,101, , 
631537,6315.37,118, , 
633230,6332.3,87, , 
635988,6359.88,142, , 
636135,6361.35,86, , 
636347,6363.47,104, , 
636558,6365.58,104, , 
 , , , 4.375, 5.0
639796,6397.96,74, , 
640031,6400.31,76, , 
640407,6404.07,118, , 
640552,6405.52,67, , 
645924,6459.24,69, , 
646220,6462.2,109, , 
646362,6463.62,113, , 
 , , , 4.375, 4.375
650857,6508.57,83, , 
652662,6526.62,141, , 
652948,6529.48,111, , 
653084,6530.84,120, , 
656720,6567.2,84, , 
 , , , 3.125, 5.0
656941,6569.41,82, , 
657157,6571.57,86, , 
661285,6612.85,67, , 
661563,6615.63,90, , 
661936,6619.36,87, , 
 , , , 3.125, 6.25
668048,6680.48,98, , 
670743,6707.43,62, , 
671086,6710.86,85, , 
671367,6713.67,91, , 
674054,6740.54,74, , 
674357,6743.57,70, , 
674506,6745.06,97, , 
674724,6747.24,74, , 
674934,6749.34,109, , 
675138,6751.38,80, , 
 , , , 6.25, 6.25
679499,6794.99,105, , 
679983,6799.83,66, , 
683598,6835.98,94, , 
683816,6838.16,86, , 
684097,6840.97,62, , 
684381,6843.81,92, , 
684992,6849.92,71, , 
685455,6854.55,57, , 
 , , , 5.0, 4.375
686058,6860.58,90, , 
689346,6893.46,122, , 
690697,6906.97,96, , 
693395,6933.95,92, , 
693614,6936.14,126, , 
693821,6938.21,65, , 
694096,6940.96,75, , 
 , , , 4.375, 5.0
695998,6959.98,87, , 
696447,6964.47,95, , 
699061,6990.61,94, , 
700453,7004.53,93, , 
700984,7009.84,68, , 
701717,7017.17,84, , 
703508,7035.08,110, , 
703719,7037.19,79, , 
704058,7040.58,96, , 
704258,7042.58,75, , 
704460,7044.6,62, , 
704659,7046.59,68, , 
 , , , 7.5, 5.625
705040,7050.4,78, , 
708072,7080.72,83, , 
708610,7086.1,62, , 
709967,7099.67,65, , 
713253,7132.53,63, , 
714545,7145.45,68, , 
 , , , 3.75, 5.625
715312,7153.12,80, , 
719387,7193.87,114, , 
722657,7226.57,84, , 
723028,7230.28,82, , 
723237,7232.37,56, , 
723509,7235.09,64, , 
 , , , 3.75, 5.625
726583,7265.83,63, , 
726870,7268.7,79, , 
728686,7286.86,63, , 
729559,7295.59,64, , 
729905,7299.05,79, , 
730528,7305.28,77, , 
731054,7310.54,58, , 
731441,7314.41,76, , 
732689,7326.89,82, , 
 , , , 5.625, 6.875
734230,7342.3,128, , 
734680,7346.8,99, , 
735487,7354.87,77, , 
736267,7362.67,78, , 
736696,7366.96,63, , 
736982,7369.82,59, , 
737417,7374.17,79, , 
738383,7383.83,97, , 
739171,7391.71,97, , 
739462,7394.62,89, , 
740909,7409.09,61, , 
741591,7415.91,63, , 
742750,7427.5,144, , 
 , , , 8.125, 9.375
743373,7433.73,59, , 
743961,7439.61,97, , 
745443,7454.43,83, , 
747878,7478.78,56, , 
748264,7482.64,62, , 
748906,7489.06,66, , 
750229,7502.29,60, , 
751077,7510.77,87, , 
752252,7522.52,123, , 
752830,7528.3,62, , 
 , , , 6.25, 9.375
753053,7530.53,70, , 
753447,7534.47,78, , 
757218,7572.18,72, , 
757802,7578.02,81, , 
758403,7584.03,77, , 
759205,7592.05,81, , 
760216,7602.16,63, , 
762009,7620.09,62, , 
 , , , 5.0, 10.0
762871,7628.71,76, , 
763617,7636.17,65, , 
763911,7639.11,59, , 
764275,7642.75,75, , 
765104,7651.04,84, , 
765394,7653.94,84, , 
766161,7661.61,80, , 
767368,7673.68,57, , 
769006,7690.06,85, , 
769229,7692.29,89, , 
769614,7696.14,119, , 
769762,7697.62,76, , 
770113,7701.13,65, , 
770520,7705.2,106, , 
771189,7711.89,77, , 
771468,7714.68,56, , 
772748,7727.48,80, , 
 , , , 10.625, 7.5
773034,7730.34,56, , 
774036,7740.36,109, , 
774874,7748.74,81, , 
775047,7750.47,134, , 
775359,7753.59,55, , 
776299,7762.99,55, , 
776931,7769.31,117, , 
779172,7791.72,148, , 
780547,7805.47,139, , 
781722,7817.22,94, , 
 , , , 6.25, 6.875
781957,7819.57,131, , 
783909,7839.09,107, , 
789230,7892.3,99, , 
 , , , 1.875, 10.0
791304,7913.04,94, , 
792161,7921.61,80, , 
792542,7925.42,122, , 
794056,7940.56,73, , 
794285,7942.85,127, , 
795169,7951.69,84, , 
796161,7961.61,71, , 
796473,7964.73,111, , 
796779,7967.79,119, , 
797084,7970.84,137, , 
798811,7988.11,69, , 
799927,7999.27,75, , 
 , , , 7.5, 16.875
801311,8013.11,106, , 
802253,8022.53,103, , 
802843,8028.43,118, , 
803283,8032.83,113, , 
803576,8035.76,107, , 
803799,8037.99,75, , 
804168,8041.68,97, , 
804467,8044.67,122, , 
804766,8047.66,97, , 
805060,8050.6,125, , 
805434,8054.34,105, , 
805737,8057.37,107, , 
806035,8060.35,118, , 
806329,8063.29,132, , 
806983,8069.83,123, , 
807350,8073.5,118, , 
808579,8085.79,113, , 
809453,8094.53,115, , 
809742,8097.42,115, , 
810394,8103.94,87, , 
 , , , 12.5, 20.625
811283,8112.83,125, , 
811574,8115.74,108, , 
812235,8122.35,128, , 
812537,8125.37,84, , 
813847,8138.47,105, , 
814138,8141.38,87, , 
814428,8144.28,79, , 
814789,8147.89,113, , 
815079,8150.79,107, , 
815374,8153.74,93, , 
815668,8156.68,81, , 
815963,8159.63,128, , 
816255,8162.55,116, , 
816836,8168.36,120, , 
817129,8171.29,86, , 
817717,8177.17,83, , 
819252,8192.52,67, , 
819543,8195.43,109, , 
819831,8198.31,111, , 
 , , , 11.875, 22.5
820191,8201.91,115, , 
821061,8210.61,112, , 
821360,8213.6,115, , 
821658,8216.58,75, , 
822028,8220.28,103, , 
822250,8222.5,134, , 
822686,8226.86,96, , 
823402,8234.02,92, , 
824048,8240.48,105, , 
824333,8243.33,125, , 
825678,8256.78,74, , 
825963,8259.63,92, , 
826888,8268.88,134, , 
827898,8278.98,122, , 
828551,8285.51,94, , 
828839,8288.39,80, , 
829124,8291.24,130, , 
829698,8296.98,125, , 
830926,8309.26,116, , 
831217,8312.17,108, , 
831793,8317.93,68, , 
 , , , 13.125, 20.0
 , , , 0.0, 20.0
840177,8401.77,118, , 
840475,8404.75,85, , 
840847,8408.47,133, , 
841867,8418.67,91, , 
842234,8422.34,68, , 
842527,8425.27,69, , 
842818,8428.18,76, , 
843108,8431.08,104, , 
844037,8440.37,131, , 
845043,8450.43,117, , 
845327,8453.27,122, , 
845613,8456.13,94, , 
845903,8459.03,135, , 
846196,8461.96,126, , 
846486,8464.86,122, , 
846771,8467.71,65, , 
847401,8474.01,77, , 
847687,8476.87,100, , 
847976,8479.76,115, , 
 , , , 11.875, 22.5
848983,8489.83,115, , 
849560,8495.6,118, , 
849920,8499.2,109, , 
850206,8502.06,117, , 
850567,8505.67,98, , 
851135,8511.35,79, , 
851422,8514.22,108, , 
851710,8517.1,85, , 
852067,8520.67,98, , 
852567,8525.67,77, , 
853079,8530.79,87, , 
853727,8537.27,80, , 
854018,8540.18,110, , 
854669,8546.69,78, , 
855244,8552.44,110, , 
856177,8561.77,87, , 
856546,8565.46,125, , 
856841,8568.41,84, , 
858343,8583.43,108, , 
 , , , 11.875, 21.875
858559,8585.59,108, , 
858920,8589.2,115, , 
859208,8592.08,96, , 
859495,8594.95,125, , 
860706,8607.06,121, , 
861628,8616.28,113, , 
863116,8631.16,115, , 
863411,8634.11,123, , 
863703,8637.03,119, , 
864067,8640.67,124, , 
864357,8643.57,121, , 
864646,8646.46,68, , 
865587,8655.87,110, , 
865875,8658.75,99, , 
867007,8670.07,134, , 
867361,8673.61,75, , 
868217,8682.17,75, , 
869071,8690.71,78, , 
870069,8700.69,109, , 
 , , , 11.875, 23.125
 , , , 0.0, 21.875
 , , , 0.0, 20.625
887603,8876.03,93, , 
887885,8878.85,128, , 
888749,8887.49,102, , 
888963,8889.63,98, , 
889884,8898.84,107, , 
890178,8901.78,87, , 
890540,8905.4,107, , 
892181,8921.81,68, , 
892813,8928.13,116, , 
893454,8934.54,101, , 
893737,8937.37,107, , 
894298,8942.98,125, , 
894794,8947.94,82, , 
895145,8951.45,114, , 
895498,8954.98,106, , 
895782,8957.82,110, , 
896437,8964.37,121, , 
896653,8966.53,123, , 
 , , , 11.25, 17.5
896932,8969.32,98, , 
897851,8978.51,133, , 
898562,8985.62,116, , 
899052,8990.52,85, , 
900035,9000.35,101, , 
900315,9003.15,113, , 
900595,9005.95,68, , 
900945,9009.45,134, , 
901583,9015.83,125, , 
901930,9019.3,72, , 
902770,9027.7,81, , 
903125,9031.25,79, , 
903408,9034.08,93, , 
903971,9039.71,131, , 
904251,9042.51,110, , 
905221,9052.21,115, , 
905563,9055.63,73, , 
906123,9061.23,87, , 
 , , , 11.25, 20.0
906750,9067.5,89, , 
908127,9081.27,136, , 
908401,9084.01,124, , 
908673,9086.73,135, , 
909302,9093.02,111, , 
909587,9095.87,103, , 
911388,9113.88,96, , 
911945,9119.45,110, , 
912849,9128.49,101, , 
913765,9137.65,80, , 
915019,9150.19,76, , 
915369,9153.69,72, , 
 , , , 7.5, 19.375
916272,9162.72,83, , 
916628,9166.28,100, , 
916979,9169.79,91, , 
917609,9176.09,120, , 
918175,9181.75,114, , 
919913,9199.13,106, , 
920190,9201.9,77, , 
920538,9205.38,87, , 
920818,9208.18,110, , 
921165,9211.65,124, , 
921861,9218.61,59, , 
922704,9227.04,113, , 
923053,9230.53,94, , 
923332,9233.32,116, , 
924511,9245.11,80, , 
925417,9254.17,131, , 
 , , , 10.0, 20.0
926040,9260.4,108, , 
927888,9278.88,72, , 
928502,9285.02,91, , 
929958,9299.58,119, , 
931747,9317.47,93, , 
932644,9326.44,105, , 
934483,9344.83,102, , 
935101,9351.01,127, , 
935651,9356.51,84, , 
936276,9362.76,70, , 
936960,9369.6,101, , 
 , , , 6.875, 15.625
 , , , 0.0, 13.125
946304,9463.04,113, , 
946993,9469.93,127, , 
947413,9474.13,77, , 
948925,9489.25,101, , 
950173,9501.73,133, , 
952058,9520.58,130, , 
952675,9526.75,106, , 
953438,9534.38,70, , 
953716,9537.16,101, , 
953990,9539.9,117, , 
 , , , 6.25, 19.375
954540,9545.4,69, , 
954827,9548.27,129, , 
955110,9551.1,89, , 
955385,9553.85,124, , 
955654,9556.54,122, , 
955994,9559.94,122, , 
956274,9562.74,67, , 
956626,9566.26,94, , 
956972,9569.72,107, , 
957809,9578.09,135, , 
958161,9581.61,93, , 
961327,9613.27,111, , 
962019,9620.19,111, , 
963811,9638.11,132, , 
 , , , 8.75, 21.875
964151,9641.51,96, , 
965119,9651.19,86, , 
965325,9653.25,135, , 
965597,9655.97,123, , 
966696,9666.96,63, , 
968009,9680.09,81, , 
969727,9697.27,106, , 
970621,9706.21,100, , 
971174,9711.74,124, , 
971515,9715.15,102, , 
972407,9724.07,94, , 
972749,9727.49,76, , 
972953,9729.53,130, , 
973294,9732.94,92, , 
 , , , 8.75, 18.125
974259,9742.59,64, , 
975698,9756.98,72, , 
976172,9761.72,121, , 
977868,9778.68,127, , 
979157,9791.57,75, , 
979561,9795.61,108, , 
980582,9805.82,89, , 
981191,9811.91,64, , 
982007,9820.07,92, , 
982344,9823.44,109, , 
 , , , 6.25, 15.625
983489,9834.89,104, , 
983762,9837.62,86, , 
983965,9839.65,117, , 
984301,9843.01,110, , 
984571,9845.71,124, , 
984918,9849.18,75, , 
985125,9851.25,135, , 
985397,9853.97,73, , 
985598,9855.98,86, , 
986001,9860.01,127, , 
986278,9862.78,133, , 
986555,9865.55,126, , 
986758,9867.58,123, , 
987160,9871.6,96, , 
987361,9873.61,115, , 
987702,9877.02,123, , 
987975,9879.75,119, , 
988589,9885.89,110, , 
988861,9888.61,107, , 
989408,9894.08,123, , 
989751,9897.51,62, , 
990222,9902.22,102, , 
990772,9907.72,109, , 
991046,9910.46,138, , 
991387,9913.87,86, , 
991660,9916.6,64, , 
991932,9919.32,110, , 
992275,9922.75,91, , 
992549,9925.49,117, , 
992819,9928.19,119, , 
993091,9930.91,115, , 
993365,9933.65,115, , 
993705,9937.05,95, , 
993974,9939.74,95, , 
994307,9943.07,89, , 
994641,9946.41,128, , 
994912,9949.12,93, , 
 , , , 23.125, 18.75
 , , , 0.0, 11.875
1003113,10031.13,62, , 
1004854,10048.54,47, , 
 , , , 1.25, 15.625
1012298,10122.98,103, , 
1014905,10149.05,82, , 
1015866,10158.66,121, , 
1016487,10164.87,86, , 
1017781,10177.81,98, , 
1019405,10194.05,78, , 
1019742,10197.42,66, , 
1021441,10214.41,56, , 
1023604,10236.04,99, , 
 , , , 5.625, 15.0
 , , , 0.0, 16.875
1031339,10313.39,110, , 
1032466,10324.66,79, , 
1033760,10337.6,115, , 
1034031,10340.31,116, , 
1034362,10343.62,64, , 
1034967,10349.67,134, , 
1035514,10355.14,94, , 
1036654,10366.54,84, , 
1039420,10394.2,73, , 
1040569,10405.69,106, , 
1040840,10408.4,120, , 
 , , , 6.875, 17.5
1041179,10411.79,115, , 
1042337,10423.37,81, , 
1043285,10432.85,92, , 
1045570,10455.7,68, , 
1047603,10476.03,125, , 
1048379,10483.79,122, , 
1048727,10487.27,93, , 
1048998,10489.98,114, , 
1049898,10498.98,112, , 
1050181,10501.81,121, , 
 , , , 6.25, 13.125
1050594,10505.94,103, , 
1050940,10509.4,113, , 
1053499,10534.99,109, , 
1054898,10548.98,148, , 
1054945,10549.45,183, , 
1055116,10551.16,68, , 
 , , , 3.75, 6.25
1060856,10608.56,90, , 
1061315,10613.15,112, , 
1061576,10615.76,112, , 
1064858,10648.58,89, , 
1065118,10651.18,136, , 
1065314,10653.14,147, , 
1065576,10655.76,121, , 
1068141,10681.41,114, , 
1068478,10684.78,97, , 
1068696,10686.96,95, , 
 , , , 6.25, 9.375
1071569,10715.69,94, , 
1072043,10720.43,110, , 
1075288,10752.88,58, , 
1075424,10754.24,116, , 
1075623,10756.23,141, , 
1075887,10758.87,91, , 
1076087,10760.87,141, , 
1078721,10787.21,78, , 
1079003,10790.03,79, , 
 , , , 5.625, 9.375
1080875,10808.75,104, , 
1082468,10824.68,87, , 
1082673,10826.73,100, , 
1082912,10829.12,61, , 
1083208,10832.08,142, , 
1084316,10843.16,111, , 
1084881,10848.81,141, , 
1086658,10866.58,84, , 
1086885,10868.85,99, , 
1087111,10871.11,171, , 
1089030,10890.3,78, , 
1089867,10898.67,74, , 
1090020,10900.2,118, , 
1090343,10903.43,71, , 
1090596,10905.96,54, , 
1090717,10907.17,137, , 
 , , , 10.0, 11.875
1092238,10922.38,163, , 
1092636,10926.36,196, , 
1094583,10945.83,118, , 
1097480,10974.8,68, , 
1098272,10982.72,80, , 
1098846,10988.46,148, , 
 , , , 3.75, 11.875
1099147,10991.47,141, , 
1099451,10994.51,80, , 
1099891,10998.91,87, , 
1101588,11015.88,51, , 
1101799,11017.99,43, , 
1102852,11028.52,127, , 
1103287,11032.87,79, , 
1103873,11038.73,89, , 
1105708,11057.08,43, , 
1106385,11063.85,76, , 
1107137,11071.37,93, , 
1107717,11077.17,130, , 
1108089,11080.89,132, , 
 , , , 8.125, 13.125
1109678,11096.78,143, , 
1110698,11106.98,136, , 
 , , , 1.25, 10.625
1117798,11177.98,119, , 
1118559,11185.59,95, , 
1120462,11204.62,127, , 
1124220,11242.2,146, , 
1127369,11273.69,95, , 
 , , , 3.125, 12.5
1128462,11284.62,167, , 
1128620,11286.2,145, , 
1129123,11291.23,62, , 
1137374,11373.74,127, , 
 , , , 2.5, 8.125
1139264,11392.64,54, , 
1139605,11396.05,113, , 
1139815,11398.15,137, , 
1140021,11400.21,132, , 
1143080,11430.8,92, , 
1143289,11432.89,84, , 
1143500,11435.0,136, , 
1143980,11439.8,87, , 
1144114,11441.14,109, , 
 , , , 5.625, 9.375
1147030,11470.3,84, , 
1147313,11473.13,106, , 
1147527,11475.27,68, , 
1147667,11476.67,103, , 
1148140,11481.4,66, , 
1148335,11483.35,132, , 
1151761,11517.61,135, , 
1151970,11519.7,113, , 
1152178,11521.78,118, , 
1155388,11553.88,79, , 
1155533,11555.33,85, , 
 , , , 6.875, 11.25
1159366,11593.66,91, , 
1159588,11595.88,106, , 
1159815,11598.15,110, , 
1160034,11600.34,112, , 
1160243,11602.43,89, , 
1164095,11640.95,70, , 
1164656,11646.56,86, , 
1164858,11648.58,100, , 
1165060,11650.6,69, , 
 , , , 5.625, 11.25
1168312,11683.12,111, , 
1168791,11687.91,114, , 
1172249,11722.49,73, , 
1172471,11724.71,107, , 
 , , , 2.5, 8.75
1176922,11769.22,149, , 
1177057,11770.57,147, , 
1180583,11805.83,68, , 
1180798,11807.98,118, , 
1180941,11809.41,86, , 
 , , , 3.125, 10.625
1185229,11852.29,115, , 
1185654,11856.54,125, , 
1189534,11895.34,141, , 
1189741,11897.41,110, , 
1192894,11928.94,65, , 
1193044,11930.44,121, , 
 , , , 3.75, 11.25
1195124,11951.24,130
1196688,11966.88,86
1197595,11975.95,131
1201166,12011.66,118
 , , , 2.0, 10.5
