R-PEAK INDEX, TIME, AMPLITUDE
100016,1000.16,127
100096,1000.96,146
100253,1002.53,110
100332,1003.32,146
100408,1004.08,98
100485,1004.85,137
100562,1005.62,123
100639,1006.39,104
100715,1007.15,129
100793,1007.93,142
100822,1008.22,54
100872,1008.72,115
100950,1009.5,110
101029,1010.29,137
101108,1011.08,141
101186,1011.86,152
101264,1012.64,85
101343,1013.43,127
101421,1014.21,134
101499,1014.99,118
101577,1015.77,137
101606,1016.06,55
101656,1016.56,105
101734,1017.34,116
101813,1018.13,144
101892,1018.92,130
101921,1019.21,52
101972,1019.72,75
102050,1020.5,151
102128,1021.28,102
102208,1022.08,105
102238,1022.38,52
102288,1022.88,116
102317,1023.17,54
102366,1023.66,154
102444,1024.44,136
102473,1024.73,53
102523,1025.23,138
102552,1025.52,54
102601,1026.01,96
102679,1026.79,113
102758,1027.58,148
102837,1028.37,111
102916,1029.16,141
102995,1029.95,127
103074,1030.74,145
103154,1031.54,128
103183,1031.83,52
103233,1032.33,132
103312,1033.12,150
103392,1033.92,121
103421,1034.21,53
103473,1034.73,137
103553,1035.53,144
103582,1035.82,52
103633,1036.33,143
103662,1036.62,53
103713,1037.13,130
103791,1037.91,111
103869,1038.69,80
103948,1039.48,130
104025,1040.25,139
104102,1041.02,94
104178,1041.78,96
104254,1042.54,101
104330,1043.3,126
104406,1044.06,93
104483,1044.83,125
104512,1045.12,55
104563,1045.63,83
104641,1046.41,151
104718,1047.18,92
104797,1047.97,127
104826,1048.26,56
104874,1048.74,86
104902,1049.02,55
104951,1049.51,109
105029,1050.29,135
105107,1051.07,133
105136,1051.36,55
105184,1051.84,133
105261,1052.61,138
105338,1053.38,144
105367,1053.67,55
105416,1054.16,103
105445,1054.45,56
105493,1054.93,132
105521,1055.21,54
105570,1055.7,100
105647,1056.47,100
105723,1057.23,75
105801,1058.01,83
105877,1058.77,134
105954,1059.54,82
106030,1060.3,131
106106,1061.06,104
106182,1061.82,141
106258,1062.58,115
106334,1063.34,111
106410,1064.1,114
106487,1064.87,129
106563,1065.63,92
106639,1066.39,136
106716,1067.16,117
106792,1067.92,77
106868,1068.68,130
106944,1069.44,126
107019,1070.19,89
107094,1070.94,116
107169,1071.69,97
107244,1072.44,131
107319,1073.19,85
107349,1073.49,53
107395,1073.95,120
107470,1074.7,115
107545,1075.45,94
107622,1076.22,120
107651,1076.51,57
107697,1076.97,137
107772,1077.72,151
107848,1078.48,96
107924,1079.24,132
107953,1079.53,58
108000,1080.0,120
108076,1080.76,103
108106,1081.06,55
108154,1081.54,134
108233,1082.33,135
108262,1082.62,57
108311,1083.11,144
108389,1083.89,133
108468,1084.68,87
108546,1085.46,108
108624,1086.24,142
108701,1087.01,105
108779,1087.79,116
108807,1088.07,58
108856,1088.56,129
108933,1089.33,126
108962,1089.62,53
109010,1090.1,140
109039,1090.39,55
109088,1090.88,129
109117,1091.17,55
109165,1091.65,138
109242,1092.42,85
109320,1093.2,79
109349,1093.49,52
109397,1093.97,137
109473,1094.73,95
109551,1095.51,73
109578,1095.78,52
109628,1096.28,128
109706,1097.06,108
109784,1097.84,110
109862,1098.62,107
109940,1099.4,131
110017,1100.17,147
110094,1100.94,93
110171,1101.71,123
110247,1102.47,118
110323,1103.23,111
110352,1103.52,55
110399,1103.99,135
110428,1104.28,55
110476,1104.76,135
110506,1105.06,55
110552,1105.52,100
110627,1106.27,132
110705,1107.05,70
110732,1107.32,52
110781,1107.81,130
110810,1108.1,54
110857,1108.57,104
110934,1109.34,128
111011,1110.11,76
111041,1110.41,57
111091,1110.91,90
111119,1111.19,55
111169,1111.69,118
111198,1111.98,59
111247,1112.47,127
111326,1113.26,82
111355,1113.55,59
111405,1114.05,140
111434,1114.34,58
111484,1114.84,94
111563,1115.63,158
111592,1115.92,58
111643,1116.43,130
111672,1116.72,58
111722,1117.22,128
111751,1117.51,57
111801,1118.01,147
111830,1118.3,53
111881,1118.81,130
111910,1119.1,53
111962,1119.62,97
112040,1120.4,111
112119,1121.19,141
112198,1121.98,129
112276,1122.76,125
112354,1123.54,104
112383,1123.83,52
112432,1124.32,132
112461,1124.61,52
112511,1125.11,118
112539,1125.39,52
112588,1125.88,129
112665,1126.65,125
112743,1127.43,118
112824,1128.24,102
112907,1129.07,130
112988,1129.88,134
113017,1130.17,54
113069,1130.69,144
113098,1130.98,54
113152,1131.52,132
113234,1132.34,94
113314,1133.14,74
113344,1133.44,56
113396,1133.96,142
113478,1134.78,115
113507,1135.07,57
113556,1135.56,81
113635,1136.35,126
113714,1137.14,122
113794,1137.94,137
113823,1138.23,54
113873,1138.73,103
113951,1139.51,111
114031,1140.31,135
114060,1140.6,53
114112,1141.12,124
114141,1141.41,55
114191,1141.91,148
114271,1142.71,146
114352,1143.52,80
114382,1143.82,55
114432,1144.32,129
114512,1145.12,95
114591,1145.91,103
114621,1146.21,55
114671,1146.71,78
114701,1147.01,57
114749,1147.49,93
114828,1148.28,135
114857,1148.57,52
114907,1149.07,107
114986,1149.86,97
115065,1150.65,127
115145,1151.45,85
115225,1152.25,91
115304,1153.04,118
115333,1153.33,53
115382,1153.82,149
115461,1154.61,136
115490,1154.9,52
115541,1155.41,74
115619,1156.19,114
115699,1156.99,135
115778,1157.78,105
115857,1158.57,79
115936,1159.36,112
116015,1160.15,76
116092,1160.92,139
116170,1161.7,112
116248,1162.48,106
116325,1163.25,79
116355,1163.55,52
116401,1164.01,77
116479,1164.79,108
116556,1165.56,100
116585,1165.85,56
116633,1166.33,124
116661,1166.61,57
116709,1167.09,121
116785,1167.85,150
116863,1168.63,132
116892,1168.92,58
116941,1169.41,126
116970,1169.7,58
117017,1170.17,97
117094,1170.94,133
117172,1171.72,88
117202,1172.02,61
117252,1172.52,140
117281,1172.81,58
117330,1173.3,89
117409,1174.09,114
117490,1174.9,127
117519,1175.19,56
117570,1175.7,108
117650,1176.5,141
117731,1177.31,121
117812,1178.12,113
117890,1178.9,121
117967,1179.67,101
118045,1180.45,121
118121,1181.21,84
118197,1181.97,141
118273,1182.73,140
118348,1183.48,78
118423,1184.23,131
118498,1184.98,133
118574,1185.74,104
118652,1186.52,130
118729,1187.29,127
118807,1188.07,114
118886,1188.86,91
118965,1189.65,110
119043,1190.43,137
119122,1191.22,100
119198,1191.98,123
119275,1192.75,123
119351,1193.51,119
119426,1194.26,105
119501,1195.01,137
119578,1195.78,98
119655,1196.55,119
119684,1196.84,52
119733,1197.33,71
119811,1198.11,124
119889,1198.89,84
119970,1199.7,83
119999,1199.99,51
120051,1200.51,107
120080,1200.8,51
120130,1201.3,127
120159,1201.59,54
120209,1202.09,141
120289,1202.89,138
120318,1203.18,51
120367,1203.67,116
120396,1203.96,52
120443,1204.43,74
120520,1205.2,131
120549,1205.49,55
120597,1205.97,139
120625,1206.25,52
120672,1206.72,77
120750,1207.5,121
120780,1207.8,60
120826,1208.26,180
120905,1209.05,162
120934,1209.34,62
120986,1209.86,134
121015,1210.15,60
121064,1210.64,148
121143,1211.43,169
121223,1212.23,138
121252,1212.52,54
121303,1213.03,134
121332,1213.32,52
121382,1213.82,150
121462,1214.62,177
121545,1215.45,91
121627,1216.27,138
121708,1217.08,163
121790,1217.9,135
121874,1218.74,118
121955,1219.55,104
122039,1220.39,145
122121,1221.21,82
122202,1222.02,111
122285,1222.85,132
122367,1223.67,136
122448,1224.48,138
122529,1225.29,126
122611,1226.11,105
122694,1226.94,116
122774,1227.74,119
122857,1228.57,131
122941,1229.41,131
123024,1230.24,94
123107,1231.07,91
123192,1231.92,130
123275,1232.75,77
123358,1233.58,136
123441,1234.41,102
123526,1235.26,91
123610,1236.1,115
123697,1236.97,76
123785,1237.85,119
123873,1238.73,87
123964,1239.64,81
124056,1240.56,123
124149,1241.49,126
124242,1242.42,115
124271,1242.71,54
124337,1243.37,146
124430,1244.3,108
124460,1244.6,57
124518,1245.18,140
124547,1245.47,55
124607,1246.07,116
124690,1246.9,131
124720,1247.2,72
124772,1247.72,139
124802,1248.02,79
124852,1248.52,122
124881,1248.81,66
124930,1249.3,134
124959,1249.59,76
125008,1250.08,125
125038,1250.38,67
125088,1250.88,138
125116,1251.16,54
125167,1251.67,101
125249,1252.49,168
125333,1253.33,120
125363,1253.63,54
125417,1254.17,139
125502,1255.02,134
125588,1255.88,100
125677,1256.77,152
125763,1257.63,155
125852,1258.52,105
125943,1259.43,148
126034,1260.34,122
126063,1260.63,52
126122,1261.22,155
126213,1262.13,146
126304,1263.04,130
126393,1263.93,157
126483,1264.83,149
126571,1265.71,152
126657,1266.57,148
126744,1267.44,135
126830,1268.3,148
126914,1269.14,144
126998,1269.98,86
127082,1270.82,149
127164,1271.64,120
127245,1272.45,92
127327,1273.27,138
127408,1274.08,126
127487,1274.87,121
127565,1275.65,107
127642,1276.42,134
127719,1277.19,124
127796,1277.96,112
127874,1278.74,78
127952,1279.52,70
128032,1280.32,84
128061,1280.61,51
128112,1281.12,140
128141,1281.41,52
128190,1281.9,121
128269,1282.69,136
128350,1283.5,155
128379,1283.79,53
128433,1284.33,132
128463,1284.63,54
128515,1285.15,116
128598,1285.98,156
128682,1286.82,142
128712,1287.12,55
128764,1287.64,132
128848,1288.48,112
128877,1288.77,53
128931,1289.31,142
128960,1289.6,55
129012,1290.12,109
129093,1290.93,162
129175,1291.75,93
129204,1292.04,55
129257,1292.57,106
129287,1292.87,54
129337,1293.37,138
129417,1294.17,97
129499,1294.99,115
129528,1295.28,53
129580,1295.8,123
129610,1296.1,58
129663,1296.63,136
129746,1297.46,124
129830,1298.3,138
129916,1299.16,132
130003,1300.03,135
130091,1300.91,130
130121,1301.21,49
130177,1301.77,143
130265,1302.65,85
130353,1303.53,130
130439,1304.39,116
130527,1305.27,143
130614,1306.14,138
130703,1307.03,97
130790,1307.9,131
130876,1308.76,139
130960,1309.6,119
131043,1310.43,153
131072,1310.72,52
131124,1311.24,136
131154,1311.54,57
131203,1312.03,164
131282,1312.82,165
131312,1313.12,60
131362,1313.62,124
131391,1313.91,63
131441,1314.41,131
131471,1314.71,70
131522,1315.22,122
131603,1316.03,178
131633,1316.33,59
131685,1316.85,137
131716,1317.16,55
131765,1317.65,103
131847,1318.47,137
131876,1318.76,52
131930,1319.3,99
131959,1319.59,53
132012,1320.12,89
132094,1320.94,157
132178,1321.78,89
132263,1322.63,101
132346,1323.46,142
132431,1324.31,114
132517,1325.17,148
132606,1326.06,105
132693,1326.93,96
132782,1327.82,142
132871,1328.71,88
132960,1329.6,140
133048,1330.48,149
133136,1331.36,138
133222,1332.22,141
133310,1333.1,117
133397,1333.97,97
133481,1334.81,138
133565,1335.65,129
133648,1336.48,122
133731,1337.31,80
133811,1338.11,106
133893,1338.93,132
133975,1339.75,121
134059,1340.59,74
134141,1341.41,100
134226,1342.26,87
134313,1343.13,144
134399,1343.99,82
134484,1344.84,89
134571,1345.71,122
134657,1346.57,135
134742,1347.42,139
134827,1348.27,103
134913,1349.13,149
135001,1350.01,133
135089,1350.89,129
135180,1351.8,83
135211,1352.11,50
135271,1352.71,148
135365,1353.65,119
135458,1354.58,129
135487,1354.87,53
135549,1355.49,144
135579,1355.79,50
135642,1356.42,132
135733,1357.33,101
135763,1357.63,48
135823,1358.23,138
135912,1359.12,114
135941,1359.41,55
136001,1360.01,131
136032,1360.32,48
136087,1360.87,131
136175,1361.75,85
136205,1362.05,53
136265,1362.65,145
136295,1362.95,52
136352,1363.52,135
136440,1364.4,140
136469,1364.69,53
136529,1365.29,150
136559,1365.59,54
136617,1366.17,99
136705,1367.05,153
136736,1367.36,51
136794,1367.94,151
136824,1368.24,50
136881,1368.81,119
136966,1369.66,86
136997,1369.97,48
137052,1370.52,78
137136,1371.36,123
137220,1372.2,94
137304,1373.04,106
137385,1373.85,102
137465,1374.65,148
137546,1375.46,136
137624,1376.24,120
137653,1376.53,56
137701,1377.01,174
137778,1377.78,177
137808,1378.08,52
137855,1378.55,151
137884,1378.84,49
137930,1379.3,146
138007,1380.07,166
138084,1380.84,106
138115,1381.15,50
138161,1381.61,134
138192,1381.92,54
138239,1382.39,117
138316,1383.16,155
138394,1383.94,107
138424,1384.24,49
138471,1384.71,133
138549,1385.49,138
138628,1386.28,119
138706,1387.06,130
138783,1387.83,79
138863,1388.63,90
138941,1389.41,133
139019,1390.19,126
139096,1390.96,132
139173,1391.73,156
139250,1392.5,101
139328,1393.28,142
139404,1394.04,100
139479,1394.79,147
139555,1395.55,90
139632,1396.32,113
139708,1397.08,121
139784,1397.84,133
139861,1398.61,147
139938,1399.38,103
140014,1400.14,116
140089,1400.89,70
140165,1401.65,143
140241,1402.41,77
140319,1403.19,90
140395,1403.95,69
140473,1404.73,87
140554,1405.54,98
140636,1406.36,86
140718,1407.18,135
140747,1407.47,51
140803,1408.03,140
140889,1408.89,137
140976,1409.76,107
141062,1410.62,135
141148,1411.48,150
141235,1412.35,95
141319,1413.19,101
141348,1413.48,49
141403,1414.03,126
141488,1414.88,126
141572,1415.72,100
141601,1416.01,49
141654,1416.54,126
141739,1417.39,83
141822,1418.22,132
141852,1418.52,56
141904,1419.04,121
141986,1419.86,78
142069,1420.69,149
142150,1421.5,110
142179,1421.79,56
142230,1422.3,67
142309,1423.09,155
142388,1423.88,123
142418,1424.18,49
142465,1424.65,117
142542,1425.42,154
142620,1426.2,95
142650,1426.5,57
142697,1426.97,124
142727,1427.27,54
142774,1427.74,163
142851,1428.51,169
142928,1429.28,105
143005,1430.05,86
143083,1430.83,82
143161,1431.61,145
143240,1432.4,142
143318,1433.18,132
143475,1434.75,135
143554,1435.54,104
143634,1436.34,123
143714,1437.14,125
143794,1437.94,124
143876,1438.76,138
143958,1439.58,98
144038,1440.38,111
144121,1441.21,114
144205,1442.05,120
144289,1442.89,134
144372,1443.72,115
144456,1444.56,82
144542,1445.42,145
144627,1446.27,103
144712,1447.12,133
144797,1447.97,144
144880,1448.8,134
144966,1449.66,151
145051,1450.51,138
145138,1451.38,104
145222,1452.22,150
145306,1453.06,80
145392,1453.92,141
145477,1454.77,105
145507,1455.07,49
145562,1455.62,114
145649,1456.49,101
145734,1457.34,73
145764,1457.64,50
145818,1458.18,111
145848,1458.48,58
145902,1459.02,147
145987,1459.87,136
146071,1460.71,123
146100,1461.0,59
146154,1461.54,117
146238,1462.38,147
146322,1463.22,150
146351,1463.51,58
146404,1464.04,123
146434,1464.34,61
146486,1464.86,105
146567,1465.67,146
146648,1466.48,134
146678,1466.78,56
146728,1467.28,142
146759,1467.59,52
146806,1468.06,101
146885,1468.85,112
146966,1469.66,130
146996,1469.96,53
147046,1470.46,131
147076,1470.76,63
147126,1471.26,102
147209,1472.09,139
147238,1472.38,55
147291,1472.91,103
147322,1473.22,52
147373,1473.73,110
147455,1474.55,149
147484,1474.84,52
147536,1475.36,81
147619,1476.19,127
147649,1476.49,54
147700,1477.0,119
147729,1477.29,55
147781,1477.81,150
147863,1478.63,132
147944,1479.44,101
148026,1480.26,102
148108,1481.08,147
148191,1481.91,137
148273,1482.73,75
148354,1483.54,120
148436,1484.36,133
148518,1485.18,137
148598,1485.98,124
148679,1486.79,139
148760,1487.6,80
148841,1488.41,110
148921,1489.21,137
149003,1490.03,115
149084,1490.84,119
149164,1491.64,131
149194,1491.94,57
149244,1492.44,137
149326,1493.26,88
149409,1494.09,147
149439,1494.39,51
149490,1494.9,116
149571,1495.71,138
149654,1496.54,90
149683,1496.83,51
149734,1497.34,75
149764,1497.64,54
149814,1498.14,122
149843,1498.43,65
149894,1498.94,141
149923,1499.23,55
149976,1499.76,72
150005,1500.05,54
150059,1500.59,133
150145,1501.45,130
150230,1502.3,83
150260,1502.6,52
150318,1503.18,131
150346,1503.46,52
150405,1504.05,134
150494,1504.94,137
150523,1505.23,50
150580,1505.8,78
150611,1506.11,58
150666,1506.66,146
150749,1507.49,153
150834,1508.34,141
150864,1508.64,51
150918,1509.18,120
150947,1509.47,61
151001,1510.01,117
151085,1510.85,84
151168,1511.68,132
151198,1511.98,57
151250,1512.5,139
151331,1513.31,87
151414,1514.14,137
151444,1514.44,50
151492,1514.92,60
151521,1515.21,64
151570,1515.7,168
151647,1516.47,113
151725,1517.25,187
151801,1518.01,136
151875,1518.75,139
151949,1519.49,94
152026,1520.26,134
152055,1520.55,52
152103,1521.03,139
152179,1521.79,118
152255,1522.55,92
152333,1523.33,122
152410,1524.1,103
152488,1524.88,95
152567,1525.67,85
152645,1526.45,91
152722,1527.22,120
152801,1528.01,152
152879,1528.79,121
152957,1529.57,81
153034,1530.34,101
153111,1531.11,105
153188,1531.88,80
153266,1532.66,135
153342,1533.42,100
153420,1534.2,126
153498,1534.98,131
153575,1535.75,135
153653,1536.53,125
153731,1537.31,108
153809,1538.09,130
153890,1538.9,138
153971,1539.71,118
154052,1540.52,93
154132,1541.32,81
154214,1542.14,122
154294,1542.94,81
154374,1543.74,108
154455,1544.55,124
154535,1545.35,81
154564,1545.64,52
154615,1546.15,131
154644,1546.44,50
154698,1546.98,141
154783,1547.83,99
154869,1548.69,135
154959,1549.59,124
154988,1549.88,54
155047,1550.47,138
155076,1550.76,55
155138,1551.38,122
155227,1552.27,127
155317,1553.17,91
155346,1553.46,56
155406,1554.06,79
155496,1554.96,119
155525,1555.25,58
155587,1555.87,144
155616,1556.16,56
155676,1556.76,132
155768,1557.68,140
155799,1557.99,53
155857,1558.57,138
155946,1559.46,81
155975,1559.75,60
156034,1560.34,124
156065,1560.65,57
156118,1561.18,72
156203,1562.03,178
156285,1562.85,124
156315,1563.15,62
156365,1563.65,118
156394,1563.94,66
156444,1564.44,70
156524,1565.24,105
156554,1565.54,56
156602,1566.02,91
156633,1566.33,60
156680,1566.8,119
156759,1567.59,108
156837,1568.37,93
156868,1568.68,58
156915,1569.15,136
156994,1569.94,151
157074,1570.74,119
157104,1571.04,50
157154,1571.54,85
157233,1572.33,119
157312,1573.12,161
157393,1573.93,124
157423,1574.23,52
157473,1574.73,89
157553,1575.53,122
157634,1576.34,135
157716,1577.16,137
157799,1577.99,117
157882,1578.82,126
157967,1579.67,138
158051,1580.51,127
158135,1581.35,85
158220,1582.2,137
158302,1583.02,143
158382,1583.82,150
158462,1584.62,143
158542,1585.42,119
158620,1586.2,95
158701,1587.01,106
158783,1587.83,113
158865,1588.65,119
158951,1589.51,97
159034,1590.34,125
159064,1590.64,52
159118,1591.18,139
159147,1591.47,50
159203,1592.03,121
159232,1592.32,53
159286,1592.86,68
159371,1593.71,118
159456,1594.56,107
159540,1595.4,129
159570,1595.7,55
159624,1596.24,130
159710,1597.1,126
159739,1597.39,51
159796,1597.96,90
159825,1598.25,54
159879,1598.79,128
159963,1599.63,121
160047,1600.47,109
160077,1600.77,56
160129,1601.29,72
160211,1602.11,115
160293,1602.93,150
160323,1603.23,58
160372,1603.72,122
160402,1604.02,55
160450,1604.5,141
160530,1605.3,128
160559,1605.59,54
160608,1606.08,138
160637,1606.37,52
160685,1606.85,139
160714,1607.14,52
160761,1607.61,131
160838,1608.38,142
160868,1608.68,55
160915,1609.15,117
160943,1609.43,60
160990,1609.9,134
161067,1610.67,102
161144,1611.44,117
161174,1611.74,52
161221,1612.21,130
161300,1613.0,158
161380,1613.8,96
161461,1614.61,97
161489,1614.89,53
161541,1615.41,146
161623,1616.23,105
161706,1617.06,130
161788,1617.88,130
161870,1618.7,154
161952,1619.52,112
162034,1620.34,100
162116,1621.16,122
162198,1621.98,136
162281,1622.81,136
162362,1623.62,141
162445,1624.45,100
162528,1625.28,129
162607,1626.07,103
162686,1626.86,129
162764,1627.64,106
162840,1628.4,90
162917,1629.17,108
162995,1629.95,112
163072,1630.72,122
163101,1631.01,51
163152,1631.52,91
163182,1631.82,50
163236,1632.36,145
163265,1632.65,52
163316,1633.16,139
163397,1633.97,153
163483,1634.83,115
163513,1635.13,58
163568,1635.68,101
163598,1635.98,63
163656,1636.56,98
163743,1637.43,104
163772,1637.72,50
163828,1638.28,112
163858,1638.58,60
163912,1639.12,130
163995,1639.95,146
164080,1640.8,147
164109,1641.09,51
164165,1641.65,86
164196,1641.96,53
164249,1642.49,101
164333,1643.33,147
164417,1644.17,140
164446,1644.46,51
164501,1645.01,96
164588,1645.88,142
164674,1646.74,128
164704,1647.04,50
164759,1647.59,112
164844,1648.44,150
164930,1649.3,116
164958,1649.58,52
165013,1650.13,87
165096,1650.96,108
165178,1651.78,85
165209,1652.09,52
165259,1652.59,90
165338,1653.38,142
165418,1654.18,84
165498,1654.98,100
165528,1655.28,52
165577,1655.77,114
165607,1656.07,60
165656,1656.56,166
165735,1657.35,124
165813,1658.13,115
165842,1658.42,53
165891,1658.91,106
165921,1659.21,62
165968,1659.68,125
166048,1660.48,146
166127,1661.27,149
166157,1661.57,58
166206,1662.06,131
166285,1662.85,91
166367,1663.67,156
166449,1664.49,142
166531,1665.31,132
166616,1666.16,90
166702,1667.02,96
166789,1667.89,126
166875,1668.75,109
166962,1669.62,84
167047,1670.47,86
167134,1671.34,101
167219,1672.19,98
167306,1673.06,103
167388,1673.88,143
167417,1674.17,51
167473,1674.73,156
167502,1675.02,49
167556,1675.56,71
167585,1675.85,57
167640,1676.4,138
167725,1677.25,75
167809,1678.09,76
167896,1678.96,96
167926,1679.26,50
167981,1679.81,125
168066,1680.66,106
168095,1680.95,53
168152,1681.52,143
168235,1682.35,116
168317,1683.17,96
168347,1683.47,56
168401,1684.01,74
168429,1684.29,55
168480,1684.8,121
168560,1685.6,132
168590,1685.9,58
168642,1686.42,97
