R-PEAK INDEX, TIME, AMPLITUDE
100016,1000.16,127
100096,1000.96,146
100253,1002.53,110
100332,1003.32,146
100408,1004.08,98
100485,1004.85,137
100562,1005.62,123
100639,1006.39,104
100715,1007.15,129
100793,1007.93,142
100822,1008.22,54
100872,1008.72,115
100950,1009.5,110
101029,1010.29,137
101108,1011.08,141
101186,1011.86,152
101264,1012.64,85
101343,1013.43,127
101421,1014.21,134
101499,1014.99,118
101577,1015.77,137
101606,1016.06,55
101656,1016.56,105
101734,1017.34,116
101813,1018.13,144
101892,1018.92,130
101921,1019.21,52
101972,1019.72,75
102050,1020.5,151
102128,1021.28,102
102208,1022.08,105
102238,1022.38,52
102288,1022.88,116
102317,1023.17,54
102366,1023.66,154
102444,1024.44,136
102473,1024.73,53
102523,1025.23,138
102552,1025.52,54
102601,1026.01,96
102679,1026.79,113
102758,1027.58,148
102837,1028.37,111
102916,1029.16,141
102995,1029.95,127
103074,1030.74,145
103154,1031.54,128
103183,1031.83,52
103233,1032.33,132
103312,1033.12,150
103392,1033.92,121
103421,1034.21,53
103473,1034.73,137
103553,1035.53,144
103582,1035.82,52
103633,1036.33,143
103662,1036.62,53
103713,1037.13,130
103791,1037.91,111
103869,1038.69,80
103948,1039.48,130
104025,1040.25,139
104102,1041.02,94
104178,1041.78,96
104254,1042.54,101
104330,1043.3,126
104406,1044.06,93
104483,1044.83,125
104512,1045.12,55
104563,1045.63,83
104641,1046.41,151
104718,1047.18,92
104797,1047.97,127
104826,1048.26,56
104874,1048.74,86
104902,1049.02,55
104951,1049.51,109
105029,1050.29,135
105107,1051.07,133
105136,1051.36,55
105184,1051.84,133
105261,1052.61,138
105338,1053.38,144
105367,1053.67,55
105416,1054.16,103
105445,1054.45,56
105493,1054.93,132
105521,1055.21,54
105570,1055.7,100
105647,1056.47,100
105723,1057.23,75
105801,1058.01,83
105877,1058.77,134
105954,1059.54,82
106030,1060.3,131
106106,1061.06,104
106182,1061.82,141
106258,1062.58,115
106334,1063.34,111
106410,1064.1,114
106487,1064.87,129
106563,1065.63,92
106639,1066.39,136
106716,1067.16,117
106792,1067.92,77
106868,1068.68,130
106944,1069.44,126
107019,1070.19,89
107094,1070.94,116
107169,1071.69,97
107244,1072.44,131
107319,1073.19,85
107349,1073.49,53
107395,1073.95,120
107470,1074.7,115
107545,1075.45,94
107622,1076.22,120
107651,1076.51,57
107697,1076.97,137
107772,1077.72,151
107848,1078.48,96
107924,1079.24,132
107953,1079.53,58
108000,1080.0,120
108076,1080.76,103
108106,1081.06,55
108154,1081.54,134
108233,1082.33,135
108262,1082.62,57
108311,1083.11,144
108389,1083.89,133
108468,1084.68,87
108546,1085.46,108
108624,1086.24,142
108701,1087.01,105
108779,1087.79,116
108807,1088.07,58
108856,1088.56,129
108933,1089.33,126
108962,1089.62,53
109010,1090.1,140
109039,1090.39,55
109088,1090.88,129
109117,1091.17,55
109165,1091.65,138
109242,1092.42,85
109320,1093.2,79
109349,1093.49,52
109397,1093.97,137
109473,1094.73,95
109551,1095.51,73
109578,1095.78,52
109628,1096.28,128
109706,1097.06,108
109784,1097.84,110
109862,1098.62,107
109940,1099.4,131
110017,1100.17,147
110094,1100.94,93
110171,1101.71,123
110247,1102.47,118
110323,1103.23,111
110352,1103.52,55
110399,1103.99,135
110428,1104.28,55
110476,1104.76,135
110506,1105.06,55
110552,1105.52,100
110627,1106.27,132
110705,1107.05,70
110732,1107.32,52
110781,1107.81,130
110810,1108.1,54
110857,1108.57,104
110934,1109.34,128
111011,1110.11,76
111041,1110.41,57
111091,1110.91,90
111119,1111.19,55
111169,1111.69,118
111198,1111.98,59
111247,1112.47,127
111326,1113.26,82
111355,1113.55,59
111405,1114.05,140
111434,1114.34,58
111484,1114.84,94
111563,1115.63,158
111592,1115.92,58
111643,1116.43,130
111672,1116.72,58
111722,1117.22,128
111751,1117.51,57
111801,1118.01,147
111830,1118.3,53
111881,1118.81,130
111910,1119.1,53
111962,1119.62,97
112040,1120.4,111
112119,1121.19,141
112198,1121.98,129
112276,1122.76,125
112354,1123.54,104
112383,1123.83,52
112432,1124.32,132
112461,1124.61,52
112511,1125.11,118
112539,1125.39,52
112588,1125.88,129
112665,1126.65,125
112743,1127.43,118
112824,1128.24,102
112907,1129.07,130
112988,1129.88,134
113017,1130.17,54
113069,1130.69,144
113098,1130.98,54
113152,1131.52,132
113234,1132.34,94
113314,1133.14,74
113344,1133.44,56
113396,1133.96,142
113478,1134.78,115
113507,1135.07,57
113556,1135.56,81
113635,1136.35,126
113714,1137.14,122
113794,1137.94,137
113823,1138.23,54
113873,1138.73,103
113951,1139.51,111
114031,1140.31,135
114060,1140.6,53
114112,1141.12,124
114141,1141.41,55
114191,1141.91,148
114271,1142.71,146
114352,1143.52,80
114382,1143.82,55
114432,1144.32,129
114512,1145.12,95
114591,1145.91,103
114621,1146.21,55
114671,1146.71,78
114701,1147.01,57
114749,1147.49,93
114828,1148.28,135
114857,1148.57,52
114907,1149.07,107
114986,1149.86,97
115065,1150.65,127
115145,1151.45,85
115225,1152.25,91
115304,1153.04,118
115333,1153.33,53
115382,1153.82,149
115461,1154.61,136
115490,1154.9,52
115541,1155.41,74
115619,1156.19,114
115699,1156.99,135
115778,1157.78,105
115857,1158.57,79
115936,1159.36,112
116015,1160.15,76
116092,1160.92,139
116170,1161.7,112
116248,1162.48,106
116325,1163.25,79
116355,1163.55,52
116401,1164.01,77
116479,1164.79,108
116556,1165.56,100
116585,1165.85,56
116633,1166.33,124
116661,1166.61,57
116709,1167.09,121
116785,1167.85,150
116863,1168.63,132
116892,1168.92,58
116941,1169.41,126
116970,1169.7,58
117017,1170.17,97
117094,1170.94,133
117172,1171.72,88
117202,1172.02,61
117252,1172.52,140
117281,1172.81,58
117330,1173.3,89
117409,1174.09,114
117490,1174.9,127
117519,1175.19,56
117570,1175.7,108
117650,1176.5,141
117731,1177.31,121
117812,1178.12,113
117890,1178.9,121
117967,1179.67,101
118045,1180.45,121
118121,1181.21,84
118197,1181.97,141
118273,1182.73,140
118348,1183.48,78
118423,1184.23,131
118498,1184.98,133
118574,1185.74,104
118652,1186.52,130
118729,1187.29,127
118807,1188.07,114
118886,1188.86,91
118965,1189.65,110
119043,1190.43,137
119122,1191.22,100
119198,1191.98,123
119275,1192.75,123
119351,1193.51,119
119426,1194.26,105
119501,1195.01,137
119578,1195.78,98
119655,1196.55,119
119684,1196.84,52
119733,1197.33,71
119811,1198.11,124
119889,1198.89,84
119970,1199.7,83
119999,1199.99,51
120051,1200.51,107
120080,1200.8,51
120130,1201.3,127
120159,1201.59,54
120209,1202.09,141
120289,1202.89,138
120318,1203.18,51
120367,1203.67,116
120396,1203.96,52
120443,1204.43,74
120520,1205.2,131
120549,1205.49,55
120597,1205.97,139
120625,1206.25,52
120672,1206.72,77
120750,1207.5,121
120780,1207.8,60
120826,1208.26,180
120905,1209.05,162
120934,1209.34,62
120986,1209.86,134
121015,1210.15,60
121064,1210.64,148
121143,1211.43,169
121223,1212.23,138
121252,1212.52,54
121303,1213.03,134
121332,1213.32,52
121382,1213.82,150
121462,1214.62,177
121545,1215.45,91
121627,1216.27,138
121708,1217.08,163
121790,1217.9,135
121874,1218.74,118
121955,1219.55,104
122039,1220.39,145
122121,1221.21,82
122202,1222.02,111
122285,1222.85,132
122367,1223.67,136
122448,1224.48,138
122529,1225.29,126
122611,1226.11,105
122694,1226.94,116
122774,1227.74,119
122857,1228.57,131
122941,1229.41,131
123024,1230.24,94
123107,1231.07,91
123192,1231.92,130
123275,1232.75,77
123358,1233.58,136
123441,1234.41,102
123526,1235.26,91
123610,1236.1,115
123697,1236.97,76
123785,1237.85,119
123873,1238.73,87
123964,1239.64,81
124056,1240.56,123
124149,1241.49,126
124242,1242.42,115
124271,1242.71,54
124337,1243.37,146
124430,1244.3,108
124460,1244.6,57
124518,1245.18,140
124547,1245.47,55
124607,1246.07,116
124690,1246.9,131
124720,1247.2,72
124772,1247.72,139
124802,1248.02,79
124852,1248.52,122
124881,1248.81,66
124930,1249.3,134
124959,1249.59,76
125008,1250.08,125
125038,1250.38,67
125088,1250.88,138
125116,1251.16,54
125167,1251.67,101
125249,1252.49,168
125333,1253.33,120
125363,1253.63,54
125417,1254.17,139
125502,1255.02,134
125588,1255.88,100
125677,1256.77,152
125763,1257.63,155
125852,1258.52,105
125943,1259.43,148
126034,1260.34,122
126063,1260.63,52
126122,1261.22,155
126213,1262.13,146
126304,1263.04,130
126393,1263.93,157
126483,1264.83,149
126571,1265.71,152
126657,1266.57,148
126744,1267.44,135
126830,1268.3,148
126914,1269.14,144
126998,1269.98,86
127082,1270.82,149
127164,1271.64,120
127245,1272.45,92
127327,1273.27,138
127408,1274.08,126
127487,1274.87,121
127565,1275.65,107
127642,1276.42,134
127719,1277.19,124
127796,1277.96,112
127874,1278.74,78
127952,1279.52,70
128032,1280.32,84
128061,1280.61,51
128112,1281.12,140
128141,1281.41,52
128190,1281.9,121
128269,1282.69,136
128350,1283.5,155
128379,1283.79,53
128433,1284.33,132
128463,1284.63,54
128515,1285.15,116
128598,1285.98,156
128682,1286.82,142
128712,1287.12,55
128764,1287.64,132
128848,1288.48,112
128877,1288.77,53
128931,1289.31,142
128960,1289.6,55
129012,1290.12,109
129093,1290.93,162
129175,1291.75,93
129204,1292.04,55
129257,1292.57,106
129287,1292.87,54
129337,1293.37,138
129417,1294.17,97
129499,1294.99,115
129528,1295.28,53
129580,1295.8,123
129610,1296.1,58
129663,1296.63,136
129746,1297.46,124
129830,1298.3,138
129916,1299.16,132
130003,1300.03,135
130091,1300.91,130
130121,1301.21,49
130177,1301.77,143
130265,1302.65,85
130353,1303.53,130
130439,1304.39,116
130527,1305.27,143
130614,1306.14,138
130703,1307.03,97
130790,1307.9,131
130876,1308.76,139
130960,1309.6,119
131043,1310.43,153
131072,1310.72,52
131124,1311.24,136
131154,1311.54,57
131203,1312.03,164
131282,1312.82,165
131312,1313.12,60
131362,1313.62,124
131391,1313.91,63
131441,1314.41,131
131471,1314.71,70
131522,1315.22,122
131603,1316.03,178
131633,1316.33,59
131685,1316.85,137
131716,1317.16,55
131765,1317.65,103
131847,1318.47,137
131876,1318.76,52
131930,1319.3,99
131959,1319.59,53
132012,1320.12,89
132094,1320.94,157
132178,1321.78,89
132263,1322.63,101
132346,1323.46,142
132431,1324.31,114
132517,1325.17,148
132606,1326.06,105
132693,1326.93,96
132782,1327.82,142
132871,1328.71,88
132960,1329.6,140
133048,1330.48,149
133136,1331.36,138
133222,1332.22,141
133310,1333.1,117
133397,1333.97,97
133481,1334.81,138
133565,1335.65,129
133648,1336.48,122
133731,1337.31,80
133811,1338.11,106
133893,1338.93,132
133975,1339.75,121
134059,1340.59,74
134141,1341.41,100
134226,1342.26,87
134313,1343.13,144
134399,1343.99,82
134484,1344.84,89
134571,1345.71,122
134657,1346.57,135
134742,1347.42,139
134827,1348.27,103
134913,1349.13,149
135001,1350.01,133
135089,1350.89,129
135180,1351.8,83
135211,1352.11,50
135271,1352.71,148
135365,1353.65,119
135458,1354.58,129
135487,1354.87,53
135549,1355.49,144
135579,1355.79,50
135642,1356.42,132
135733,1357.33,101
135763,1357.63,48
135823,1358.23,138
135912,1359.12,114
135941,1359.41,55
136001,1360.01,131
136032,1360.32,48
136087,1360.87,131
136175,1361.75,85
136205,1362.05,53
136265,1362.65,145
136295,1362.95,52
136352,1363.52,135
136440,1364.4,140
136469,1364.69,53
136529,1365.29,150
136559,1365.59,54
136617,1366.17,99
136705,1367.05,153
136736,1367.36,51
136794,1367.94,151
136824,1368.24,50
136881,1368.81,119
136966,1369.66,86
136997,1369.97,48
137052,1370.52,78
137136,1371.36,123
137220,1372.2,94
137304,1373.04,106
137385,1373.85,102
137465,1374.65,148
137546,1375.46,136
137624,1376.24,120
137653,1376.53,56
137701,1377.01,174
137778,1377.78,177
137808,1378.08,52
137855,1378.55,151
137884,1378.84,49
137930,1379.3,146
138007,1380.07,166
138084,1380.84,106
138115,1381.15,50
138161,1381.61,134
138192,1381.92,54
138239,1382.39,117
138316,1383.16,155
138394,1383.94,107
138424,1384.24,49
138471,1384.71,133
138549,1385.49,138
138628,1386.28,119
138706,1387.06,130
138783,1387.83,79
138863,1388.63,90
138941,1389.41,133
139019,1390.19,126
139096,1390.96,132
139173,1391.73,156
139250,1392.5,101
139328,1393.28,142
139404,1394.04,100
139479,1394.79,147
139555,1395.55,90
139632,1396.32,113
139708,1397.08,121
139784,1397.84,133
139861,1398.61,147
139938,1399.38,103
140014,1400.14,116
140089,1400.89,70
140165,1401.65,143
140241,1402.41,77
140319,1403.19,90
140395,1403.95,69
140473,1404.73,87
140554,1405.54,98
140636,1406.36,86
140718,1407.18,135
140747,1407.47,51
140803,1408.03,140
140889,1408.89,137
140976,1409.76,107
141062,1410.62,135
141148,1411.48,150
141235,1412.35,95
141319,1413.19,101
141348,1413.48,49
141403,1414.03,126
141488,1414.88,126
141572,1415.72,100
141601,1416.01,49
141654,1416.54,126
141739,1417.39,83
141822,1418.22,132
141852,1418.52,56
141904,1419.04,121
141986,1419.86,78
142069,1420.69,149
142150,1421.5,110
142179,1421.79,56
142230,1422.3,67
142309,1423.09,155
142388,1423.88,123
142418,1424.18,49
142465,1424.65,117
142542,1425.42,154
142620,1426.2,95
142650,1426.5,57
142697,1426.97,124
142727,1427.27,54
142774,1427.74,163
142851,1428.51,169
142928,1429.28,105
143005,1430.05,86
143083,1430.83,82
143161,1431.61,145
143240,1432.4,142
143318,1433.18,132
143475,1434.75,135
143554,1435.54,104
143634,1436.34,123
143714,1437.14,125
143794,1437.94,124
143876,1438.76,138
143958,1439.58,98
144038,1440.38,111
144121,1441.21,114
144205,1442.05,120
144289,1442.89,134
144372,1443.72,115
144456,1444.56,82
144542,1445.42,145
144627,1446.27,103
144712,1447.12,133
144797,1447.97,144
144880,1448.8,134
144966,1449.66,151
145051,1450.51,138
145138,1451.38,104
145222,1452.22,150
145306,1453.06,80
145392,1453.92,141
145477,1454.77,105
145507,1455.07,49
145562,1455.62,114
145649,1456.49,101
145734,1457.34,73
145764,1457.64,50
145818,1458.18,111
145848,1458.48,58
145902,1459.02,147
145987,1459.87,136
146071,1460.71,123
146100,1461.0,59
146154,1461.54,117
146238,1462.38,147
146322,1463.22,150
146351,1463.51,58
146404,1464.04,123
146434,1464.34,61
146486,1464.86,105
146567,1465.67,146
146648,1466.48,134
146678,1466.78,56
146728,1467.28,142
146759,1467.59,52
146806,1468.06,101
146885,1468.85,112
146966,1469.66,130
146996,1469.96,53
147046,1470.46,131
147076,1470.76,63
147126,1471.26,102
147209,1472.09,139
147238,1472.38,55
147291,1472.91,103
147322,1473.22,52
147373,1473.73,110
147455,1474.55,149
147484,1474.84,52
147536,1475.36,81
147619,1476.19,127
147649,1476.49,54
147700,1477.0,119
147729,1477.29,55
147781,1477.81,150
147863,1478.63,132
147944,1479.44,101
148026,1480.26,102
148108,1481.08,147
148191,1481.91,137
148273,1482.73,75
148354,1483.54,120
148436,1484.36,133
148518,1485.18,137
148598,1485.98,124
148679,1486.79,139
148760,1487.6,80
148841,1488.41,110
148921,1489.21,137
149003,1490.03,115
149084,1490.84,119
149164,1491.64,131
149194,1491.94,57
149244,1492.44,137
149326,1493.26,88
149409,1494.09,147
149439,1494.39,51
149490,1494.9,116
149571,1495.71,138
149654,1496.54,90
149683,1496.83,51
149734,1497.34,75
149764,1497.64,54
149814,1498.14,122
149843,1498.43,65
149894,1498.94,141
149923,1499.23,55
149976,1499.76,72
150005,1500.05,54
150059,1500.59,133
150145,1501.45,130
150230,1502.3,83
150260,1502.6,52
150318,1503.18,131
150346,1503.46,52
150405,1504.05,134
150494,1504.94,137
150523,1505.23,50
150580,1505.8,78
150611,1506.11,58
150666,1506.66,146
150749,1507.49,153
150834,1508.34,141
150864,1508.64,51
150918,1509.18,120
150947,1509.47,61
151001,1510.01,117
151085,1510.85,84
151168,1511.68,132
151198,1511.98,57
151250,1512.5,139
151331,1513.31,87
151414,1514.14,137
151444,1514.44,50
151492,1514.92,60
151521,1515.21,64
151570,1515.7,168
151647,1516.47,113
151725,1517.25,187
151801,1518.01,136
151875,1518.75,139
151949,1519.49,94
152026,1520.26,134
152055,1520.55,52
152103,1521.03,139
152179,1521.79,118
152255,1522.55,92
152333,1523.33,122
152410,1524.1,103
152488,1524.88,95
152567,1525.67,85
152645,1526.45,91
152722,1527.22,120
152801,1528.01,152
152879,1528.79,121
152957,1529.57,81
153034,1530.34,101
153111,1531.11,105
153188,1531.88,80
153266,1532.66,135
153342,1533.42,100
153420,1534.2,126
153498,1534.98,131
153575,1535.75,135
153653,1536.53,125
153731,1537.31,108
153809,1538.09,130
153890,1538.9,138
153971,1539.71,118
154052,1540.52,93
154132,1541.32,81
154214,1542.14,122
154294,1542.94,81
154374,1543.74,108
154455,1544.55,124
154535,1545.35,81
154564,1545.64,52
154615,1546.15,131
154644,1546.44,50
154698,1546.98,141
154783,1547.83,99
154869,1548.69,135
154959,1549.59,124
154988,1549.88,54
155047,1550.47,138
155076,1550.76,55
155138,1551.38,122
155227,1552.27,127
155317,1553.17,91
155346,1553.46,56
155406,1554.06,79
155496,1554.96,119
155525,1555.25,58
155587,1555.87,144
155616,1556.16,56
155676,1556.76,132
155768,1557.68,140
155799,1557.99,53
155857,1558.57,138
155946,1559.46,81
155975,1559.75,60
156034,1560.34,124
156065,1560.65,57
156118,1561.18,72
156203,1562.03,178
156285,1562.85,124
156315,1563.15,62
156365,1563.65,118
156394,1563.94,66
156444,1564.44,70
156524,1565.24,105
156554,1565.54,56
156602,1566.02,91
156633,1566.33,60
156680,1566.8,119
156759,1567.59,108
156837,1568.37,93
156868,1568.68,58
156915,1569.15,136
156994,1569.94,151
157074,1570.74,119
157104,1571.04,50
157154,1571.54,85
157233,1572.33,119
157312,1573.12,161
157393,1573.93,124
157423,1574.23,52
157473,1574.73,89
157553,1575.53,122
157634,1576.34,135
157716,1577.16,137
157799,1577.99,117
157882,1578.82,126
157967,1579.67,138
158051,1580.51,127
158135,1581.35,85
158220,1582.2,137
158302,1583.02,143
158382,1583.82,150
158462,1584.62,143
158542,1585.42,119
158620,1586.2,95
158701,1587.01,106
158783,1587.83,113
158865,1588.65,119
158951,1589.51,97
159034,1590.34,125
159064,1590.64,52
159118,1591.18,139
159147,1591.47,50
159203,1592.03,121
159232,1592.32,53
159286,1592.86,68
159371,1593.71,118
159456,1594.56,107
159540,1595.4,129
159570,1595.7,55
159624,1596.24,130
159710,1597.1,126
159739,1597.39,51
159796,1597.96,90
159825,1598.25,54
159879,1598.79,128
159963,1599.63,121
160047,1600.47,109
160077,1600.77,56
160129,1601.29,72
160211,1602.11,115
160293,1602.93,150
160323,1603.23,58
160372,1603.72,122
160402,1604.02,55
160450,1604.5,141
160530,1605.3,128
160559,1605.59,54
160608,1606.08,138
160637,1606.37,52
160685,1606.85,139
160714,1607.14,52
160761,1607.61,131
160838,1608.38,142
160868,1608.68,55
160915,1609.15,117
160943,1609.43,60
160990,1609.9,134
161067,1610.67,102
161144,1611.44,117
161174,1611.74,52
161221,1612.21,130
161300,1613.0,158
161380,1613.8,96
161461,1614.61,97
161489,1614.89,53
161541,1615.41,146
161623,1616.23,105
161706,1617.06,130
161788,1617.88,130
161870,1618.7,154
161952,1619.52,112
162034,1620.34,100
162116,1621.16,122
162198,1621.98,136
162281,1622.81,136
162362,1623.62,141
162445,1624.45,100
162528,1625.28,129
162607,1626.07,103
162686,1626.86,129
162764,1627.64,106
162840,1628.4,90
162917,1629.17,108
162995,1629.95,112
163072,1630.72,122
163101,1631.01,51
163152,1631.52,91
163182,1631.82,50
163236,1632.36,145
163265,1632.65,52
163316,1633.16,139
163397,1633.97,153
163483,1634.83,115
163513,1635.13,58
163568,1635.68,101
163598,1635.98,63
163656,1636.56,98
163743,1637.43,104
163772,1637.72,50
163828,1638.28,112
163858,1638.58,60
163912,1639.12,130
163995,1639.95,146
164080,1640.8,147
164109,1641.09,51
164165,1641.65,86
164196,1641.96,53
164249,1642.49,101
164333,1643.33,147
164417,1644.17,140
164446,1644.46,51
164501,1645.01,96
164588,1645.88,142
164674,1646.74,128
164704,1647.04,50
164759,1647.59,112
164844,1648.44,150
164930,1649.3,116
164958,1649.58,52
165013,1650.13,87
165096,1650.96,108
165178,1651.78,85
165209,1652.09,52
165259,1652.59,90
165338,1653.38,142
165418,1654.18,84
165498,1654.98,100
165528,1655.28,52
165577,1655.77,114
165607,1656.07,60
165656,1656.56,166
165735,1657.35,124
165813,1658.13,115
165842,1658.42,53
165891,1658.91,106
165921,1659.21,62
165968,1659.68,125
166048,1660.48,146
166127,1661.27,149
166157,1661.57,58
166206,1662.06,131
166285,1662.85,91
166367,1663.67,156
166449,1664.49,142
166531,1665.31,132
166616,1666.16,90
166702,1667.02,96
166789,1667.89,126
166875,1668.75,109
166962,1669.62,84
167047,1670.47,86
167134,1671.34,101
167219,1672.19,98
167306,1673.06,103
167388,1673.88,143
167417,1674.17,51
167473,1674.73,156
167502,1675.02,49
167556,1675.56,71
167585,1675.85,57
167640,1676.4,138
167725,1677.25,75
167809,1678.09,76
167896,1678.96,96
167926,1679.26,50
167981,1679.81,125
168066,1680.66,106
168095,1680.95,53
168152,1681.52,143
168235,1682.35,116
168317,1683.17,96
168347,1683.47,56
168401,1684.01,74
168429,1684.29,55
168480,1684.8,121
168560,1685.6,132
168590,1685.9,58
168642,1686.42,97
168672,1686.72,51
168721,1687.21,119
168753,1687.53,54
168801,1688.01,125
168881,1688.81,101
168912,1689.12,52
168959,1689.59,102
169035,1690.35,115
169065,1690.65,69
169112,1691.12,162
169142,1691.42,53
169188,1691.88,154
169218,1692.18,53
169262,1692.62,130
169336,1693.36,148
169410,1694.1,134
169439,1694.39,54
169483,1694.83,78
169511,1695.11,53
169558,1695.58,125
169588,1695.88,53
169632,1696.32,107
169708,1697.08,138
169784,1697.84,128
169860,1698.6,132
169890,1698.9,52
169936,1699.36,141
170014,1700.14,82
170093,1700.93,135
170123,1701.23,49
170172,1701.72,118
170252,1702.52,93
170333,1703.33,137
170413,1704.13,96
170492,1704.92,137
170573,1705.73,131
170654,1706.54,71
170732,1707.32,133
170810,1708.1,121
170888,1708.88,147
170964,1709.64,143
171039,1710.39,127
171115,1711.15,101
171188,1711.88,75
171262,1712.62,126
171335,1713.35,132
171410,1714.1,99
171486,1714.86,121
171561,1715.61,95
171638,1716.38,141
171716,1717.16,94
171796,1717.96,85
171875,1718.75,141
171957,1719.57,144
172040,1720.4,143
172123,1721.23,125
172206,1722.06,115
172290,1722.9,144
172371,1723.71,74
172453,1724.53,147
172536,1725.36,130
172618,1726.18,143
172699,1726.99,143
172780,1727.8,131
172863,1728.63,103
172947,1729.47,135
172978,1729.78,57
173028,1730.28,104
173112,1731.12,118
173195,1731.95,118
173225,1732.25,57
173275,1732.75,77
173305,1733.05,61
173355,1733.55,143
173434,1734.34,169
173513,1735.13,105
173541,1735.41,53
173588,1735.88,105
173666,1736.66,116
173746,1737.46,148
173776,1737.76,54
173827,1738.27,125
173857,1738.57,58
173908,1739.08,108
173988,1739.88,158
174070,1740.7,121
174101,1741.01,53
174151,1741.51,131
174232,1742.32,100
174315,1743.15,128
174397,1743.97,78
174479,1744.79,130
174561,1745.61,136
174642,1746.42,137
174722,1747.22,102
174801,1748.01,96
174882,1748.82,144
174962,1749.62,131
175041,1750.41,126
175120,1751.2,128
175199,1751.99,95
175280,1752.8,98
175360,1753.6,92
175438,1754.38,108
175518,1755.18,140
175598,1755.98,137
175679,1756.79,120
175760,1757.6,98
175839,1758.39,110
175922,1759.22,153
176005,1760.05,136
176089,1760.89,79
176173,1761.73,139
176260,1762.6,86
176345,1763.45,100
176431,1764.31,90
176519,1765.19,100
176607,1766.07,94
176695,1766.95,134
176783,1767.83,94
176871,1768.71,139
176961,1769.61,153
177050,1770.5,97
177136,1771.36,137
177221,1772.21,85
177308,1773.08,101
177392,1773.92,122
177475,1774.75,131
177559,1775.59,92
177642,1776.42,130
177670,1776.7,62
177725,1777.25,132
177807,1778.07,138
177890,1778.9,133
177972,1779.72,118
178053,1780.53,123
178134,1781.34,152
178216,1782.16,92
178297,1782.97,93
178379,1783.79,63
178462,1784.62,109
178544,1785.44,146
178574,1785.74,62
178625,1786.25,127
178705,1787.05,105
178787,1787.87,97
178866,1788.66,122
178944,1789.44,125
179023,1790.23,137
179102,1791.02,128
179181,1791.81,124
179209,1792.09,61
179260,1792.6,83
179340,1793.4,145
179417,1794.17,111
179494,1794.94,179
179649,1796.49,174
179725,1797.25,140
179799,1797.99,137
179874,1798.74,153
179949,1799.49,146
180023,1800.23,76
180096,1800.96,99
180170,1801.7,154
180244,1802.44,83
180316,1803.16,145
180409,1804.09,73
180420,1804.2,257
180459,1804.59,74
180465,1804.65,133
180472,1804.72,175
180479,1804.79,107
180526,1805.26,70
180536,1805.36,125
180540,1805.4,232
180688,1806.88,89
180761,1807.61,139
180833,1808.33,89
180902,1809.02,121
180981,1809.81,58
180998,1809.98,102
181013,1810.13,99
181020,1810.2,87
181022,1810.22,101
181027,1810.27,91
181038,1810.38,203
181054,1810.54,128
181066,1810.66,156
181106,1811.06,139
181173,1811.73,148
181239,1812.39,164
181305,1813.05,106
181371,1813.71,93
181437,1814.37,121
181502,1815.02,126
181566,1815.66,124
181629,1816.29,89
181694,1816.94,110
181757,1817.57,148
181823,1818.23,167
181895,1818.95,96
181968,1819.68,112
182038,1820.38,104
182110,1821.1,129
182182,1821.82,154
182256,1822.56,144
182330,1823.3,96
182403,1824.03,132
182476,1824.76,108
182550,1825.5,145
182627,1826.27,127
182706,1827.06,94
182785,1827.85,118
182864,1828.64,139
182945,1829.45,135
183025,1830.25,68
183104,1831.04,128
183185,1831.85,159
183265,1832.65,100
183344,1833.44,73
183422,1834.22,102
183499,1834.99,137
183574,1835.74,154
183649,1836.49,179
183725,1837.25,145
183754,1837.54,57
183800,1838.0,128
183874,1838.74,152
183950,1839.5,175
184026,1840.26,159
184102,1841.02,80
184131,1841.31,59
184179,1841.79,122
184258,1842.58,145
184338,1843.38,144
184416,1844.16,156
184495,1844.95,166
184575,1845.75,140
184656,1846.56,90
184735,1847.35,78
184816,1848.16,148
184898,1848.98,96
184982,1849.82,87
185063,1850.63,116
185145,1851.45,118
185225,1852.25,116
185307,1853.07,114
185389,1853.89,114
185470,1854.7,136
185551,1855.51,138
185631,1856.31,120
185712,1857.12,115
185793,1857.93,120
185874,1858.74,117
185955,1859.55,70
186035,1860.35,81
186115,1861.15,91
186195,1861.95,119
186275,1862.75,103
186352,1863.52,63
186430,1864.3,132
186509,1865.09,136
186538,1865.38,60
186585,1865.85,61
186662,1866.62,118
186691,1866.91,51
186739,1867.39,176
186768,1867.68,58
186816,1868.16,134
186845,1868.45,61
186892,1868.92,93
186967,1869.67,145
186997,1869.97,62
187042,1870.42,112
187071,1870.71,57
187118,1871.18,149
187146,1871.46,60
187192,1871.92,145
187267,1872.67,105
187296,1872.96,58
187342,1873.42,148
187371,1873.71,57
187416,1874.16,67
187443,1874.43,56
187491,1874.91,147
187567,1875.67,150
187596,1875.96,50
187644,1876.44,128
187673,1876.73,50
187721,1877.21,80
187798,1877.98,104
187877,1878.77,116
187955,1879.55,94
188034,1880.34,96
188115,1881.15,147
188196,1881.96,135
188276,1882.76,131
188357,1883.57,128
188439,1884.39,107
188521,1885.21,111
188602,1886.02,84
188683,1886.83,128
188764,1887.64,94
188846,1888.46,127
188927,1889.27,85
189007,1890.07,72
189088,1890.88,138
189169,1891.69,132
189250,1892.5,104
189329,1893.29,78
189409,1894.09,98
189486,1894.86,98
189562,1895.62,100
189639,1896.39,99
189714,1897.14,116
189788,1897.88,123
189817,1898.17,56
189862,1898.62,119
189937,1899.37,93
189966,1899.66,50
190013,1900.13,102
190042,1900.42,58
190089,1900.89,66
190167,1901.67,126
190196,1901.96,51
190247,1902.47,95
190275,1902.75,53
190328,1903.28,55
190410,1904.1,90
190495,1904.95,121
190523,1905.23,54
190577,1905.77,118
190663,1906.63,132
190693,1906.93,52
190748,1907.48,98
190778,1907.78,60
190834,1908.34,132
190925,1909.25,130
191020,1910.2,137
191049,1910.49,57
191113,1911.13,138
191205,1912.05,83
191296,1912.96,136
191391,1913.91,79
191483,1914.83,123
191513,1915.13,54
191578,1915.78,79
191671,1916.71,103
191700,1917.0,60
191766,1917.66,128
191795,1917.95,65
191857,1918.57,84
191947,1919.47,138
191977,1919.77,51
192031,1920.31,159
192113,1921.13,131
192143,1921.43,62
192194,1921.94,143
192223,1922.23,70
192271,1922.71,164
192349,1923.49,145
192427,1924.27,177
192457,1924.57,65
192503,1925.03,160
192579,1925.79,179
192657,1926.57,145
192735,1927.35,123
192764,1927.64,56
192812,1928.12,114
192890,1928.9,136
192969,1929.69,97
193050,1930.5,150
193130,1931.3,125
193212,1932.12,122
193293,1932.93,109
193375,1933.75,91
193456,1934.56,82
193538,1935.38,104
193620,1936.2,88
193703,1937.03,102
193784,1937.84,130
193866,1938.66,105
193947,1939.47,116
194028,1940.28,86
194108,1941.08,119
194187,1941.87,131
194267,1942.67,110
194348,1943.48,124
194430,1944.3,130
194510,1945.1,131
194592,1945.92,112
194674,1946.74,100
194756,1947.56,84
194836,1948.36,94
194916,1949.16,114
194997,1949.97,95
195078,1950.78,138
195157,1951.57,102
195236,1952.36,116
195317,1953.17,108
195396,1953.96,84
195475,1954.75,82
195554,1955.54,105
195634,1956.34,87
195661,1956.61,50
195711,1957.11,97
195790,1957.9,132
195869,1958.69,140
195899,1958.99,51
195948,1959.48,118
196030,1960.3,97
196111,1961.11,154
196192,1961.92,129
196271,1962.71,88
196351,1963.51,101
196433,1964.33,146
196516,1965.16,130
196600,1966.0,108
196686,1966.86,146
196770,1967.7,79
196937,1969.37,84
197021,1970.21,137
197102,1971.02,112
197182,1971.82,103
197265,1972.65,94
197343,1973.43,156
197421,1974.21,144
197498,1974.98,104
197571,1975.71,150
197719,1977.19,131
197792,1977.92,96
197939,1979.39,118
198011,1980.11,155
198083,1980.83,144
198156,1981.56,185
198231,1982.31,104
198304,1983.04,98
198459,1984.59,141
198535,1985.35,133
198611,1986.11,142
198687,1986.87,91
198794,1987.94,77
198823,1988.23,113
198831,1988.31,151
198840,1988.4,129
198843,1988.43,213
198850,1988.5,84
198865,1988.65,171
198877,1988.77,135
198883,1988.83,87
198891,1988.91,118
198916,1989.16,171
198935,1989.35,133
198958,1989.58,81
198991,1989.91,184
199023,1990.23,78
199086,1990.86,78
199138,1991.38,185
199210,1992.1,254
199281,1992.81,137
199551,1995.51,126
199680,1996.8,158
199708,1997.08,87
199744,1997.44,129
199808,1998.08,121
199903,1999.03,90
199911,1999.11,82
199919,1999.19,133
199927,1999.27,95
199934,1999.34,81
199938,1999.38,99
199942,1999.42,93
199947,1999.47,84
199950,1999.5,112
199962,1999.62,93
199972,1999.72,151
199975,1999.75,103
200026,2000.26,75
200124,2001.24,82
200187,2001.87,103
200250,2002.5,102
200314,2003.14,131
200378,2003.78,97
200442,2004.42,98
200506,2005.06,131
200571,2005.71,128
200637,2006.37,95
200703,2007.03,77
200839,2008.39,89
201053,2010.53,110
201126,2011.26,113
201198,2011.98,81
201345,2013.45,86
201491,2014.91,76
201563,2015.63,79
201773,2017.73,112
201916,2019.16,84
202066,2020.66,82
202142,2021.42,78
202220,2022.2,78
202296,2022.96,79
202372,2023.72,94
202448,2024.48,101
202524,2025.24,75
202753,2027.53,80
202829,2028.29,96
202906,2029.06,75
202982,2029.82,86
203057,2030.57,83
203135,2031.35,82
203211,2032.11,94
203289,2032.89,123
203366,2033.66,74
203600,2036.0,77
203758,2037.58,80
203916,2039.16,97
203996,2039.96,78
204153,2041.53,87
204310,2043.1,98
204387,2043.87,93
204464,2044.64,86
204542,2045.42,77
204772,2047.72,88
204921,2049.21,109
204993,2049.93,91
205065,2050.65,96
205207,2052.07,78
205278,2052.78,116
205349,2053.49,101
205421,2054.21,83
205493,2054.93,108
205567,2055.67,122
205642,2056.42,70
205718,2057.18,95
205796,2057.96,106
205874,2058.74,60
205955,2059.55,81
206036,2060.36,109
206119,2061.19,100
206288,2062.88,94
206372,2063.72,78
206457,2064.57,82
206539,2065.39,111
206620,2066.2,99
206701,2067.01,67
206782,2067.82,99
206862,2068.62,99
206943,2069.43,86
207024,2070.24,70
207103,2071.03,55
207262,2072.62,78
207341,2073.41,82
207419,2074.19,84
207497,2074.97,58
207575,2075.75,83
207652,2076.52,87
207728,2077.28,76
207804,2078.04,76
207879,2078.79,71
208030,2080.3,85
208104,2081.04,61
208250,2082.5,54
208324,2083.24,80
208398,2083.98,89
208474,2084.74,83
208549,2085.49,87
208625,2086.25,65
208702,2087.02,97
208733,2087.33,57
208778,2087.78,119
208852,2088.52,97
208925,2089.25,57
208997,2089.97,65
209069,2090.69,115
209139,2091.39,127
209168,2091.68,66
209209,2092.09,102
209280,2092.8,79
209350,2093.5,83
209423,2094.23,92
209497,2094.97,78
209572,2095.72,117
209648,2096.48,100
209725,2097.25,76
209804,2098.04,71
209884,2098.84,91
209964,2099.64,87
210046,2100.46,62
210129,2101.29,105
210210,2102.1,122
210289,2102.89,75
210368,2103.68,65
210446,2104.46,94
210523,2105.23,89
210603,2106.03,65
210764,2107.64,69
210844,2108.44,65
210928,2109.28,61
211097,2110.97,92
211182,2111.82,87
211265,2112.65,75
211346,2113.46,101
211425,2114.25,85
211503,2115.03,58
211581,2115.81,82
211658,2116.58,83
211734,2117.34,90
211809,2118.09,56
211885,2118.85,77
211961,2119.61,61
212036,2120.36,85
212110,2121.1,65
212185,2121.85,76
212260,2122.6,63
212333,2123.33,61
212407,2124.07,80
212479,2124.79,61
212553,2125.53,82
212629,2126.29,85
212705,2127.05,70
212781,2127.81,84
212858,2128.58,73
212935,2129.35,61
213011,2130.11,78
213038,2130.38,61
213163,2131.63,94
213240,2132.4,90
213269,2132.69,64
213314,2133.14,161
213386,2133.86,86
213416,2134.16,54
213460,2134.6,78
213532,2135.32,84
213560,2135.6,65
213604,2136.04,126
213675,2136.75,68
213747,2137.47,82
213776,2137.76,75
213819,2138.19,117
213890,2138.9,60
213963,2139.63,90
213991,2139.91,57
214034,2140.34,88
214107,2141.07,68
214181,2141.81,71
214255,2142.55,90
214332,2143.32,124
214410,2144.1,84
214489,2144.89,71
214568,2145.68,109
214647,2146.47,69
214728,2147.28,82
214888,2148.88,88
214967,2149.67,78
215047,2150.47,99
215125,2151.25,64
215202,2152.02,83
215279,2152.79,60
215355,2153.55,80
215430,2154.3,57
215506,2155.06,69
215656,2156.56,72
215730,2157.3,59
215878,2158.78,70
215951,2159.51,71
216094,2160.94,80
216164,2161.64,69
216234,2162.34,71
216303,2163.03,81
216373,2163.73,81
216444,2164.44,62
216517,2165.17,66
216591,2165.91,79
216664,2166.64,74
216738,2167.38,92
216813,2168.13,79
216890,2168.9,92
216964,2169.64,57
217038,2170.38,90
217114,2171.14,88
217143,2171.43,55
217264,2172.64,78
217342,2173.42,64
217420,2174.2,102
217447,2174.47,75
217495,2174.95,87
217523,2175.23,66
217568,2175.68,98
217597,2175.97,56
217643,2176.43,59
217717,2177.17,117
217744,2177.44,68
217790,2177.9,131
217819,2178.19,65
217863,2178.63,80
217936,2179.36,76
217964,2179.64,72
218008,2180.08,81
218081,2180.81,100
218155,2181.55,95
218228,2182.28,66
218304,2183.04,105
218380,2183.8,73
218458,2184.58,87
218536,2185.36,71
218619,2186.19,92
218701,2187.01,68
218784,2187.84,91
218866,2188.66,70
218951,2189.51,60
219037,2190.37,93
219122,2191.22,97
219206,2192.06,73
219291,2192.91,60
219375,2193.75,95
219456,2194.56,59
219536,2195.36,77
219615,2196.15,71
219692,2196.92,81
219768,2197.68,62
219844,2198.44,80
219919,2199.19,73
220070,2200.7,82
220145,2201.45,81
220218,2202.18,77
220293,2202.93,58
220366,2203.66,81
220440,2204.4,93
220515,2205.15,86
220590,2205.9,71
220665,2206.65,75
220740,2207.4,87
220814,2208.14,68
220891,2208.91,82
220966,2209.66,61
221043,2210.43,94
221119,2211.19,96
221146,2211.46,56
221196,2211.96,79
221276,2212.76,99
221350,2213.5,90
221380,2213.8,67
221425,2214.25,93
221455,2214.55,62
221499,2214.99,80
221572,2215.72,84
221602,2216.02,71
221644,2216.44,117
221716,2217.16,96
221789,2217.89,97
221817,2218.17,71
221861,2218.61,106
221934,2219.34,64
222006,2220.06,68
222036,2220.36,69
222079,2220.79,97
222153,2221.53,87
222227,2222.27,66
222302,2223.02,104
222379,2223.79,93
222457,2224.57,73
222536,2225.36,102
222615,2226.15,79
222698,2226.98,80
222781,2227.81,60
222868,2228.68,107
222950,2229.5,62
223035,2230.35,92
223119,2231.19,57
223203,2232.03,104
223284,2232.84,78
223366,2233.66,89
223447,2234.47,84
223526,2235.26,61
223605,2236.05,55
223683,2236.83,70
223759,2237.59,82
223836,2238.36,56
223911,2239.11,74
223987,2239.87,73
224063,2240.63,60
224215,2242.15,71
224291,2242.91,70
224370,2243.7,84
224448,2244.48,92
224524,2245.24,95
224600,2246.0,58
224678,2246.78,75
224754,2247.54,92
224829,2248.29,69
224905,2249.05,60
224983,2249.83,89
225060,2250.6,75
225138,2251.38,87
225215,2252.15,56
225296,2252.96,110
225371,2253.71,141
225398,2253.98,72
225446,2254.46,107
225475,2254.75,62
225521,2255.21,116
225595,2255.95,83
225624,2256.24,75
225666,2256.66,96
225738,2257.38,102
225768,2257.68,72
225809,2258.09,74
225838,2258.38,69
225880,2258.8,74
225953,2259.53,85
226025,2260.25,84
226052,2260.52,68
226097,2260.97,71
226171,2261.71,95
226200,2262.0,58
226245,2262.45,72
226275,2262.75,59
226320,2263.2,73
226398,2263.98,87
226476,2264.76,59
226557,2265.57,99
226637,2266.37,93
226719,2267.19,89
226800,2268.0,80
226881,2268.81,95
226962,2269.62,63
227044,2270.44,98
227124,2271.24,81
227205,2272.05,80
227286,2272.86,59
227366,2273.66,55
227445,2274.45,84
227599,2275.99,73
227675,2276.75,66
227750,2277.5,63
227827,2278.27,95
227903,2279.03,80
227980,2279.8,78
228058,2280.58,55
228214,2282.14,96
228291,2282.91,87
228369,2283.69,86
228445,2284.45,61
228523,2285.23,70
228598,2285.98,90
228674,2286.74,86
228751,2287.51,92
228828,2288.28,70
228906,2289.06,78
228983,2289.83,98
229058,2290.58,72
229137,2291.37,67
229218,2292.18,124
229248,2292.48,70
229295,2292.95,157
229324,2293.24,82
229371,2293.71,114
229400,2294.0,72
229447,2294.47,100
229476,2294.76,78
229521,2295.21,118
229595,2295.95,117
229625,2296.25,68
229670,2296.7,95
229744,2297.44,96
229821,2298.21,108
229897,2298.97,94
229972,2299.72,114
230049,2300.49,109
230078,2300.78,56
230126,2301.26,90
230204,2302.04,98
230282,2302.82,100
230363,2303.63,91
230446,2304.46,55
230528,2305.28,82
230611,2306.11,90
230695,2306.95,86
230780,2307.8,67
230864,2308.64,66
230946,2309.46,74
231028,2310.28,103
231108,2311.08,95
231188,2311.88,76
231269,2312.69,57
231350,2313.5,98
231429,2314.29,74
231509,2315.09,63
231589,2315.89,61
231667,2316.67,77
231745,2317.45,93
231820,2318.2,75
231896,2318.96,67
231971,2319.71,60
232046,2320.46,63
232120,2321.2,90
232194,2321.94,95
232266,2322.66,86
232339,2323.39,79
232413,2324.13,81
232487,2324.87,56
232562,2325.62,67
232640,2326.4,84
232725,2327.25,106
232804,2328.04,93
232884,2328.84,68
232968,2329.68,103
233048,2330.48,58
233078,2330.78,71
233130,2331.3,91
233214,2332.14,81
233294,2332.94,104
233324,2333.24,74
233374,2333.74,128
233451,2334.51,88
233528,2335.28,103
233602,2336.02,100
233677,2336.77,111
233751,2337.51,85
233825,2338.25,124
233899,2338.99,78
233974,2339.74,110
234048,2340.48,114
234123,2341.23,108
234200,2342.0,83
234278,2342.78,99
234359,2343.59,100
234442,2344.42,101
234525,2345.25,118
234608,2346.08,72
234693,2346.93,87
234779,2347.79,100
234863,2348.63,104
234949,2349.49,92
235034,2350.34,114
235117,2351.17,99
235198,2351.98,60
235279,2352.79,86
235360,2353.6,62
235440,2354.4,79
235521,2355.21,96
235603,2356.03,57
235687,2356.87,90
235771,2357.71,81
235853,2358.53,59
235936,2359.36,56
236019,2360.19,57
236101,2361.01,58
236183,2361.83,56
236262,2362.62,63
236342,2363.42,71
236420,2364.2,98
236498,2364.98,103
236576,2365.76,69
236732,2367.32,95
236809,2368.09,88
236887,2368.87,99
236968,2369.68,88
237048,2370.48,59
237126,2371.26,77
237206,2372.06,97
237287,2372.87,101
237316,2373.16,70
237364,2373.64,92
237440,2374.4,126
237470,2374.7,64
237514,2375.14,88
237586,2375.86,110
237616,2376.16,77
237658,2376.58,128
237730,2377.3,101
237803,2378.03,158
237833,2378.33,73
237875,2378.75,125
237905,2379.05,65
237948,2379.48,117
238021,2380.21,135
238050,2380.5,73
238094,2380.94,140
238168,2381.68,77
238197,2381.97,58
238242,2382.42,94
238271,2382.71,57
238318,2383.18,128
238395,2383.95,85
238471,2384.71,115
238548,2385.48,117
238627,2386.27,70
238710,2387.1,59
238793,2387.93,102
238879,2388.79,93
238968,2389.68,63
239059,2390.59,103
239146,2391.46,85
239237,2392.37,80
239329,2393.29,78
239419,2394.19,101
239511,2395.11,112
239602,2396.02,103
239691,2396.91,93
239778,2397.78,73
239863,2398.63,64
239947,2399.47,83
240029,2400.29,96
240112,2401.12,63
240192,2401.92,97
240270,2402.7,87
240348,2403.48,75
240425,2404.25,85
240503,2405.03,84
240580,2405.8,97
240659,2406.59,77
240737,2407.37,59
240818,2408.18,68
240898,2408.98,82
240978,2409.78,94
241057,2410.57,61
241138,2411.38,75
241217,2412.17,91
241297,2412.97,74
241376,2413.76,88
241461,2414.61,94
241538,2415.38,64
241567,2415.67,68
241621,2416.21,111
241702,2417.02,135
241732,2417.32,81
241781,2417.81,121
241811,2418.11,65
241857,2418.57,86
241888,2418.88,56
241934,2419.34,106
241964,2419.64,68
242008,2420.08,124
242036,2420.36,69
242080,2420.8,105
242110,2421.1,80
242153,2421.53,104
242182,2421.82,80
242226,2422.26,90
242255,2422.55,77
242298,2422.98,140
242327,2423.27,72
242369,2423.69,135
242397,2423.97,63
242442,2424.42,116
242469,2424.69,64
242516,2425.16,159
242546,2425.46,57
242590,2425.9,137
242619,2426.19,67
242667,2426.67,136
242744,2427.44,139
242823,2428.23,100
242904,2429.04,134
242985,2429.85,84
243073,2430.73,115
243162,2431.62,138
243251,2432.51,93
243342,2433.42,120
243432,2434.32,83
243524,2435.24,66
243617,2436.17,112
243706,2437.06,82
243791,2437.91,114
243876,2438.76,116
243960,2439.6,112
244042,2440.42,90
244124,2441.24,89
244204,2442.04,107
244282,2442.82,86
244360,2443.6,91
244439,2444.39,77
244516,2445.16,94
244596,2445.96,111
244675,2446.75,108
244705,2447.05,52
244753,2447.53,91
244833,2448.33,113
244917,2449.17,110
244998,2449.98,76
245027,2450.27,58
245079,2450.79,82
245166,2451.66,119
245195,2451.95,53
245246,2452.46,131
245277,2452.77,63
245327,2453.27,100
245405,2454.05,76
245435,2454.35,61
245483,2454.83,85
245511,2455.11,68
245559,2455.59,110
245635,2456.35,77
245664,2456.64,67
245711,2457.11,123
245741,2457.41,59
245788,2457.88,133
245864,2458.64,76
245941,2459.41,117
246020,2460.2,114
246098,2460.98,98
246131,2461.31,56
246178,2461.78,127
246259,2462.59,108
246342,2463.42,97
246427,2464.27,90
246511,2465.11,69
246599,2465.99,81
246687,2466.87,101
246775,2467.75,121
246867,2468.67,87
246957,2469.57,80
247047,2470.47,73
247139,2471.39,86
247232,2472.32,101
247326,2473.26,102
247416,2474.16,67
247506,2475.06,75
247594,2475.94,74
247681,2476.81,65
247766,2477.66,94
247850,2478.5,65
247933,2479.33,83
248013,2480.13,116
248091,2480.91,102
248171,2481.71,99
248250,2482.5,103
248328,2483.28,98
248409,2484.09,102
248489,2484.89,71
248518,2485.18,55
248568,2485.68,100
248649,2486.49,119
248732,2487.32,76
248763,2487.63,55
248814,2488.14,69
248845,2488.45,55
248897,2488.97,91
248984,2489.84,87
249065,2490.65,80
249092,2490.92,59
249146,2491.46,70
249229,2492.29,81
249309,2493.09,89
249340,2493.4,58
249388,2493.88,62
249470,2494.7,100
249502,2495.02,58
249549,2495.49,134
249578,2495.78,61
249626,2496.26,124
249656,2496.56,62
249701,2497.01,114
249732,2497.32,76
249775,2497.75,95
249849,2498.49,124
249923,2499.23,103
249953,2499.53,67
249997,2499.97,72
250070,2500.7,114
250145,2501.45,142
250176,2501.76,69
250220,2502.2,131
250297,2502.97,117
250374,2503.74,124
250404,2504.04,58
250451,2504.51,80
250532,2505.32,124
250614,2506.14,94
250698,2506.98,100
250782,2507.82,76
250870,2508.7,71
250958,2509.58,105
251046,2510.46,127
251137,2511.37,77
251228,2512.28,127
251316,2513.16,111
251407,2514.07,103
251500,2515.0,110
251591,2515.91,88
251681,2516.81,93
251770,2517.7,96
251858,2518.58,100
251945,2519.45,103
252030,2520.3,88
252116,2521.16,82
252200,2522.0,61
252284,2522.84,83
252368,2523.68,64
252453,2524.53,112
252537,2525.37,63
252621,2526.21,119
252708,2527.08,106
252792,2527.92,94
252875,2528.75,112
252959,2529.59,81
253044,2530.44,96
253127,2531.27,115
253208,2532.08,71
253292,2532.92,118
253372,2533.72,66
253454,2534.54,107
253534,2535.34,62
253565,2535.65,63
253615,2536.15,99
253699,2536.99,121
253780,2537.8,67
253811,2538.11,52
253861,2538.61,114
253943,2539.43,137
253975,2539.75,56
254023,2540.23,143
254101,2541.01,132
254178,2541.78,144
254208,2542.08,68
254254,2542.54,120
254285,2542.85,57
254330,2543.3,98
254405,2544.05,125
254480,2544.8,118
254555,2545.55,90
254585,2545.85,64
254629,2546.29,127
254703,2547.03,93
254777,2547.77,100
254807,2548.07,63
254851,2548.51,90
254927,2549.27,62
255004,2550.04,76
255084,2550.84,82
255165,2551.65,111
255250,2552.5,81
255339,2553.39,107
255430,2554.3,70
255518,2555.18,120
255613,2556.13,104
255706,2557.06,123
255795,2557.95,103
255888,2558.88,111
255979,2559.79,89
256069,2560.69,98
256160,2561.6,107
256250,2562.5,104
256335,2563.35,114
256419,2564.19,86
256504,2565.04,94
256589,2565.89,73
256671,2566.71,70
256755,2567.55,88
256839,2568.39,111
256922,2569.22,91
257007,2570.07,84
257089,2570.89,78
257169,2571.69,95
257246,2572.46,68
257322,2573.22,60
257404,2574.04,76
257485,2574.85,73
257564,2575.64,58
257648,2576.48,102
257732,2577.32,109
257815,2578.15,64
257897,2578.97,115
257980,2579.8,110
258011,2580.11,60
258060,2580.6,55
258144,2581.44,122
258224,2582.24,101
258255,2582.55,63
258305,2583.05,98
258389,2583.89,115
258419,2584.19,62
258470,2584.7,93
258557,2585.57,100
258637,2586.37,91
258669,2586.69,63
258718,2587.18,141
258797,2587.97,143
258828,2588.28,80
258874,2588.74,109
258905,2589.05,61
258950,2589.5,132
259025,2590.25,123
259056,2590.56,73
259098,2590.98,82
259128,2591.28,65
259170,2591.7,65
259200,2592.0,64
259242,2592.42,93
259273,2592.73,63
259315,2593.15,144
259388,2593.88,121
259418,2594.18,62
259461,2594.61,81
259491,2594.91,53
259534,2595.34,86
259609,2596.09,114
259685,2596.85,114
259767,2597.67,123
259852,2598.52,105
259938,2599.38,72
260024,2600.24,127
260117,2601.17,125
260212,2602.12,118
260305,2603.05,123
260393,2603.93,103
260483,2604.83,118
260571,2605.71,77
260658,2606.58,65
260748,2607.48,70
260837,2608.37,98
260924,2609.24,66
261011,2610.11,114
261095,2610.95,103
261179,2611.79,94
261263,2612.63,114
261343,2613.43,72
261424,2614.24,110
261504,2615.04,88
261585,2615.85,112
261666,2616.66,100
261749,2617.49,81
261832,2618.32,67
261914,2619.14,90
261997,2619.97,91
262083,2620.83,77
262163,2621.63,69
262244,2622.44,73
262327,2623.27,118
262406,2624.06,76
262489,2624.89,115
262575,2625.75,112
262656,2626.56,62
262742,2627.42,99
262825,2628.25,124
262855,2628.55,63
262907,2629.07,90
262993,2629.93,109
263074,2630.74,113
263103,2631.03,63
263156,2631.56,112
263241,2632.41,97
263273,2632.73,63
263323,2633.23,73
263410,2634.1,139
263491,2634.91,121
263521,2635.21,66
263571,2635.71,169
263602,2636.02,59
263650,2636.5,96
263726,2637.26,117
263759,2637.59,54
263800,2638.0,102
263831,2638.31,59
263875,2638.75,77
263906,2639.06,64
263948,2639.48,85
264020,2640.2,68
264092,2640.92,89
264125,2641.25,51
264164,2641.64,123
264236,2642.36,79
264308,2643.08,81
264383,2643.83,112
264457,2644.57,104
264533,2645.33,120
264614,2646.14,118
264697,2646.97,102
264786,2647.86,73
264874,2648.74,71
264968,2649.68,124
265061,2650.61,73
265155,2651.55,123
265244,2652.44,88
265338,2653.38,126
265431,2654.31,112
265525,2655.25,92
265618,2656.18,67
265709,2657.09,65
265797,2657.97,80
265885,2658.85,95
265971,2659.71,78
266053,2660.53,93
266131,2661.31,104
266208,2662.08,98
266285,2662.85,56
266364,2663.64,64
266442,2664.42,99
266521,2665.21,109
266604,2666.04,96
266692,2666.92,118
266773,2667.73,80
266858,2668.58,122
266942,2669.42,112
267023,2670.23,72
267105,2671.05,101
267190,2671.9,101
267272,2672.72,82
267354,2673.54,100
267441,2674.41,86
267521,2675.21,98
267550,2675.5,61
267603,2676.03,60
267692,2676.92,121
267772,2677.72,87
267801,2678.01,53
267856,2678.56,132
267941,2679.41,126
267971,2679.71,52
268022,2680.22,152
268053,2680.53,56
268102,2681.02,128
268132,2681.32,60
268179,2681.79,147
268209,2682.09,60
268255,2682.55,126
268330,2683.3,131
268404,2684.04,131
268434,2684.34,62
268477,2684.77,112
268507,2685.07,67
268549,2685.49,104
268578,2685.78,60
268621,2686.21,87
268652,2686.52,68
268693,2686.93,84
268765,2687.65,114
268838,2688.38,120
268911,2689.11,102
268987,2689.87,100
269064,2690.64,74
269145,2691.45,106
269227,2692.27,104
269315,2693.15,116
269402,2694.02,86
269488,2694.88,77
269579,2695.79,78
269669,2696.69,106
269755,2697.55,64
269844,2698.44,101
269933,2699.33,101
270021,2700.21,114
270106,2701.06,104
270193,2701.93,94
270285,2702.85,91
270375,2703.75,67
270462,2704.62,111
270546,2705.46,112
270631,2706.31,107
270717,2707.17,68
270802,2708.02,76
270885,2708.85,84
270970,2709.7,92
271054,2710.54,107
271134,2711.34,97
271223,2712.23,116
271305,2713.05,104
271386,2713.86,96
271473,2714.73,90
271502,2715.02,52
271555,2715.55,90
271584,2715.84,58
271642,2716.42,114
271725,2717.25,90
271810,2718.1,120
271897,2718.97,88
271982,2719.82,88
272071,2720.71,101
272157,2721.57,90
272187,2721.87,51
272242,2722.42,98
272331,2723.31,123
272362,2723.62,62
272414,2724.14,57
272502,2725.02,97
272533,2725.33,62
272583,2725.83,96
272615,2726.15,59
272663,2726.63,106
272742,2727.42,150
272773,2727.73,66
272818,2728.18,136
272849,2728.49,69
272894,2728.94,100
272925,2729.25,60
272968,2729.68,107
273043,2730.43,77
273116,2731.16,131
273190,2731.9,83
273264,2732.64,109
273294,2732.94,58
273338,2733.38,131
273412,2734.12,93
273445,2734.45,51
273484,2734.84,89
273556,2735.56,94
273628,2736.28,93
273700,2737.0,77
273774,2737.74,104
273851,2738.51,80
273933,2739.33,56
274016,2740.16,52
274100,2741.0,63
274185,2741.85,72
274268,2742.68,92
274355,2743.55,103
274439,2744.39,93
274527,2745.27,86
274613,2746.13,70
274694,2746.94,113
274776,2747.76,69
274858,2748.58,87
274940,2749.4,107
275021,2750.21,72
275103,2751.03,69
275184,2751.84,58
275263,2752.63,65
275346,2753.46,66
275424,2754.24,106
275503,2755.03,107
275582,2755.82,71
275663,2756.63,99
275741,2757.41,68
275820,2758.2,113
275902,2759.02,100
275985,2759.85,101
276015,2760.15,56
276066,2760.66,94
276152,2761.52,112
276238,2762.38,113
276268,2762.68,54
276321,2763.21,74
276406,2764.06,76
276489,2764.89,102
276572,2765.72,102
276661,2766.61,118
276743,2767.43,81
276772,2767.72,64
276833,2768.33,110
276922,2769.22,93
277006,2770.06,144
277037,2770.37,80
277088,2770.88,101
277118,2771.18,55
277168,2771.68,141
277246,2772.46,141
277276,2772.76,64
277322,2773.22,128
277351,2773.51,62
277397,2773.97,112
277426,2774.26,70
277470,2774.7,118
277500,2775.0,52
277542,2775.42,112
277614,2776.14,110
277644,2776.44,64
277686,2776.86,106
277715,2777.15,52
277760,2777.6,92
277834,2778.34,77
277865,2778.65,56
277912,2779.12,72
277993,2779.93,68
278075,2780.75,108
278159,2781.59,105
278250,2782.5,87
278343,2783.43,114
278433,2784.33,76
278528,2785.28,122
278624,2786.24,108
278715,2787.15,110
278806,2788.06,93
278893,2788.93,94
278981,2789.81,104
279070,2790.7,91
279160,2791.6,91
279250,2792.5,88
279340,2793.4,67
279427,2794.27,113
279511,2795.11,108
279597,2795.97,113
279679,2796.79,100
279757,2797.57,116
279835,2798.35,76
279915,2799.15,88
279996,2799.96,79
280078,2800.78,102
280158,2801.58,82
280244,2802.44,118
280331,2803.31,112
280414,2804.14,67
280505,2805.05,97
280594,2805.94,111
280678,2806.78,57
280707,2807.07,62
280769,2807.69,94
280859,2808.59,131
280891,2808.91,60
280943,2809.43,87
281030,2810.3,87
281113,2811.13,95
281143,2811.43,56
281196,2811.96,94
281282,2812.82,132
281314,2813.14,60
281363,2813.63,169
281393,2813.93,63
281443,2814.43,95
281519,2815.19,150
281548,2815.48,56
281594,2815.94,111
281624,2816.24,63
281667,2816.67,98
281699,2816.99,75
281740,2817.4,102
281771,2817.71,62
281813,2818.13,125
281884,2818.84,137
281914,2819.14,68
281955,2819.55,128
282027,2820.27,106
282057,2820.57,69
282099,2820.99,87
282129,2821.29,58
282174,2821.74,76
282251,2822.51,108
282281,2822.81,56
282329,2823.29,123
282412,2824.12,112
282494,2824.94,79
282579,2825.79,73
282663,2826.63,110
282750,2827.5,81
282839,2828.39,69
282925,2829.25,93
283013,2830.13,75
283100,2831.0,108
283190,2831.9,113
283280,2832.8,117
283371,2833.71,73
283463,2834.63,99
283555,2835.55,65
283644,2836.44,89
283732,2837.32,112
283817,2838.17,107
283902,2839.02,113
283985,2839.85,114
284069,2840.69,67
284153,2841.53,63
284237,2842.37,111
284318,2843.18,100
284399,2843.99,99
284477,2844.77,85
284553,2845.53,63
284632,2846.32,66
284714,2847.14,84
284795,2847.95,77
284877,2848.77,97
284959,2849.59,71
285042,2850.42,84
285122,2851.22,83
285203,2852.03,59
285285,2852.85,98
285363,2853.63,66
285393,2853.93,69
285530,2855.3,120
285610,2856.1,126
285687,2856.87,132
285764,2857.64,129
285794,2857.94,80
285839,2858.39,154
285913,2859.13,130
285986,2859.86,117
286057,2860.57,85
286087,2860.87,62
286129,2861.29,102
286200,2862.0,100
286271,2862.71,70
286344,2863.44,111
286416,2864.16,115
286489,2864.89,78
286562,2865.62,110
286637,2866.37,107
286787,2867.87,71
286864,2868.64,82
286940,2869.4,86
287016,2870.16,82
287079,2870.79,85
287092,2870.92,104
287095,2870.95,221
287102,2871.02,70
287139,2871.39,64
287163,2871.63,71
287167,2871.67,76
287172,2871.72,63
287242,2872.42,118
287273,2872.73,67
287295,2872.95,75
287304,2873.04,109
287313,2873.13,71
287322,2873.22,87
287342,2873.42,131
287353,2873.53,72
287361,2873.61,157
287454,2874.54,65
287523,2875.23,79
287591,2875.91,76
287657,2876.57,90
287723,2877.23,81
287853,2878.53,67
288105,2881.05,66
288167,2881.67,59
288555,2885.55,68
288839,2888.39,72
288917,2889.17,70
289074,2890.74,71
289152,2891.52,78
289321,2893.21,83
289560,2895.6,71
289635,2896.35,67
289782,2897.82,104
289861,2898.61,108
289952,2899.52,86
290037,2900.37,95
290124,2901.24,130
290154,2901.54,60
290206,2902.06,146
290287,2902.87,161
290367,2903.67,154
290446,2904.46,115
290522,2905.22,105
290596,2905.96,95
290625,2906.25,65
290669,2906.69,118
290697,2906.97,65
290741,2907.41,103
290770,2907.7,62
290813,2908.13,93
290886,2908.86,102
290916,2909.16,68
290961,2909.61,122
291039,2910.39,78
291119,2911.19,69
291200,2912.0,108
291282,2912.82,108
291368,2913.68,86
291454,2914.54,110
291540,2915.4,121
291628,2916.28,124
291715,2917.15,98
291804,2918.04,91
291892,2918.92,110
291981,2919.81,104
292068,2920.68,66
292155,2921.55,91
292239,2922.39,95
292324,2923.24,108
292409,2924.09,94
292494,2924.94,100
292575,2925.75,93
292657,2926.57,84
292739,2927.39,107
292819,2928.19,101
292898,2928.98,64
292978,2929.78,100
293057,2930.57,89
293134,2931.34,64
293163,2931.63,62
293215,2932.15,107
293299,2932.99,125
293377,2933.77,76
293453,2934.53,146
293482,2934.82,77
293529,2935.29,147
293605,2936.05,150
293680,2936.8,108
293712,2937.12,70
293754,2937.54,118
293784,2937.84,67
293828,2938.28,76
293901,2939.01,94
293974,2939.74,91
294048,2940.48,133
294121,2941.21,93
294193,2941.93,98
294266,2942.66,112
294338,2943.38,112
294410,2944.1,84
294482,2944.82,111
294553,2945.53,71
294625,2946.25,96
294698,2946.98,81
294772,2947.72,70
294848,2948.48,66
294927,2949.27,73
295010,2950.1,89
295094,2950.94,108
295178,2951.78,62
295264,2952.64,59
295351,2953.51,80
295439,2954.39,92
295527,2955.27,112
295616,2956.16,108
295707,2957.07,97
295798,2957.98,97
295890,2958.9,101
295981,2959.81,95
296068,2960.68,94
296155,2961.55,70
296241,2962.41,72
296326,2963.26,65
296409,2964.09,90
296491,2964.91,107
296573,2965.73,115
296654,2966.54,91
296735,2967.35,80
296817,2968.17,97
296898,2968.98,101
296980,2969.8,84
297065,2970.65,107
297147,2971.47,104
297228,2972.28,57
297311,2973.11,91
297393,2973.93,72
297422,2974.22,66
297473,2974.73,60
297554,2975.54,73
297635,2976.35,95
297663,2976.63,60
297799,2977.99,122
297830,2978.3,56
297877,2978.77,156
297955,2979.55,113
298033,2980.33,88
298108,2981.08,94
298140,2981.4,70
298184,2981.84,144
298258,2982.58,64
298333,2983.33,84
298406,2984.06,106
298479,2984.79,144
298552,2985.52,81
298624,2986.24,101
298696,2986.96,104
298769,2987.69,102
298842,2988.42,55
298917,2989.17,90
298994,2989.94,124
299072,2990.72,65
299152,2991.52,65
299234,2992.34,84
299317,2993.17,105
299403,2994.03,101
299490,2994.9,105
299577,2995.77,81
299665,2996.65,106
299752,2997.52,111
299838,2998.38,67
299924,2999.24,99
300009,3000.09,73
300094,3000.94,79
300178,3001.78,91
300261,3002.61,94
300344,3003.44,96
300425,3004.25,57
300505,3005.05,90
300583,3005.83,89
300738,3007.38,61
300815,3008.15,102
300892,3008.92,103
300970,3009.7,86
301048,3010.48,96
301125,3011.25,95
301204,3012.04,103
301281,3012.81,97
301359,3013.59,97
301439,3014.39,85
301518,3015.18,81
301596,3015.96,75
301675,3016.75,99
301757,3017.57,116
301834,3018.34,95
301865,3018.65,63
301912,3019.12,69
301993,3019.93,124
302024,3020.24,61
302068,3020.68,54
302148,3021.48,173
302178,3021.78,68
302225,3022.25,131
302254,3022.54,63
302300,3023.0,95
302376,3023.76,112
302405,3024.05,54
302449,3024.49,126
302477,3024.77,70
302521,3025.21,75
302594,3025.94,116
302666,3026.66,98
302695,3026.95,64
302738,3027.38,75
302768,3027.68,62
302811,3028.11,93
302883,3028.83,111
302912,3029.12,58
302957,3029.57,104
303032,3030.32,74
303107,3031.07,83
303186,3031.86,93
303266,3032.66,88
303349,3033.49,80
303435,3034.35,106
303520,3035.2,81
303609,3036.09,110
303698,3036.98,66
303785,3037.85,77
303877,3038.77,93
303967,3039.67,72
304056,3040.56,76
304145,3041.45,94
304233,3042.33,102
304322,3043.22,107
304411,3044.11,76
304495,3044.95,74
304580,3045.8,64
304664,3046.64,90
304747,3047.47,96
304829,3048.29,89
304909,3049.09,85
304987,3049.87,106
305064,3050.64,98
305140,3051.4,61
305218,3052.18,96
305297,3052.97,62
305376,3053.76,98
305456,3054.56,74
305537,3055.37,99
305618,3056.18,103
305698,3056.98,94
305780,3057.8,110
305862,3058.62,89
305942,3059.42,77
306022,3060.22,82
306102,3061.02,92
306180,3061.8,80
306261,3062.61,104
306342,3063.42,65
306372,3063.72,55
306422,3064.22,64
306507,3065.07,104
306586,3065.86,87
306616,3066.16,71
306667,3066.67,90
306751,3067.51,113
306830,3068.3,94
306908,3069.08,109
306986,3069.86,91
307016,3070.16,58
307061,3070.61,97
307091,3070.91,64
307135,3071.35,94
307167,3071.67,56
307208,3072.08,118
307238,3072.38,54
307280,3072.8,64
307353,3073.53,81
307425,3074.25,106
307497,3074.97,85
307527,3075.27,63
307569,3075.69,83
307642,3076.42,79
307714,3077.14,98
307788,3077.88,86
307862,3078.62,57
307937,3079.37,107
308014,3080.14,102
308092,3080.92,74
308170,3081.7,78
308249,3082.49,111
308329,3083.29,66
308409,3084.09,59
308491,3084.91,102
308572,3085.72,97
308655,3086.55,103
308739,3087.39,70
308825,3088.25,63
308913,3089.13,101
309001,3090.01,98
309090,3090.9,61
309178,3091.78,99
309262,3092.62,70
309345,3093.45,104
309425,3094.25,107
309508,3095.08,86
309589,3095.89,87
309670,3096.7,61
309751,3097.51,63
309833,3098.33,71
309913,3099.13,84
309992,3099.92,80
310069,3100.69,69
310147,3101.47,96
310224,3102.24,69
310302,3103.02,89
310377,3103.77,63
310455,3104.55,107
310534,3105.34,90
310613,3106.13,88
310694,3106.94,101
310777,3107.77,106
310857,3108.57,80
310886,3108.86,64
310936,3109.36,63
311018,3110.18,83
311097,3110.97,84
311127,3111.27,64
311174,3111.74,75
311255,3112.55,111
311331,3113.31,87
311361,3113.61,56
311408,3114.08,75
311490,3114.9,139
311521,3115.21,57
311566,3115.66,126
311642,3116.42,150
311717,3117.17,106
311791,3117.91,133
311865,3118.65,110
311938,3119.38,112
311967,3119.67,66
312011,3120.11,108
312041,3120.41,67
312084,3120.84,79
312157,3121.57,98
312230,3122.3,121
312303,3123.03,87
312376,3123.76,75
312451,3124.51,88
312527,3125.27,71
312605,3126.05,97
312682,3126.82,88
312763,3127.63,65
312844,3128.44,61
312925,3129.25,94
313004,3130.04,71
313086,3130.86,98
313170,3131.7,108
313251,3132.51,89
313339,3133.39,106
313427,3134.27,60
313512,3135.12,64
313602,3136.02,73
313697,3136.97,70
313786,3137.86,93
313871,3138.71,98
313955,3139.55,92
314036,3140.36,74
314115,3141.15,102
314192,3141.92,101
314269,3142.69,82
314344,3143.44,54
314419,3144.19,69
314494,3144.94,82
314570,3145.7,76
314646,3146.46,97
314721,3147.21,77
314799,3147.99,74
314881,3148.81,105
314964,3149.64,81
315044,3150.44,68
315126,3151.26,89
315209,3152.09,114
315291,3152.91,94
315372,3153.72,90
315456,3154.56,72
315538,3155.38,63
315618,3156.18,80
315704,3157.04,101
315735,3157.35,62
315874,3158.74,140
315955,3159.55,127
315983,3159.83,71
316035,3160.35,138
316113,3161.13,107
316189,3161.89,133
316219,3162.19,62
316264,3162.64,124
316295,3162.95,68
316339,3163.39,88
316366,3163.66,68
316412,3164.12,129
316442,3164.42,57
316486,3164.86,76
316560,3165.6,144
316591,3165.91,65
316635,3166.35,131
316710,3167.1,68
316739,3167.39,65
316783,3167.83,107
316858,3168.58,69
316935,3169.35,57
317010,3170.1,79
317088,3170.88,92
317167,3171.67,79
317245,3172.45,92
317323,3173.23,105
317402,3174.02,63
317482,3174.82,96
317560,3175.6,107
317639,3176.39,90
317719,3177.19,68
317799,3177.99,60
317878,3178.78,82
317958,3179.58,95
318037,3180.37,98
318117,3181.17,106
318196,3181.96,86
318278,3182.78,103
318359,3183.59,79
318441,3184.41,88
318524,3185.24,70
318607,3186.07,87
318692,3186.92,105
318775,3187.75,91
318858,3188.58,58
318940,3189.4,69
319023,3190.23,72
319104,3191.04,102
319183,3191.83,106
319261,3192.61,79
319340,3193.4,91
319418,3194.18,96
319494,3194.94,85
319572,3195.72,98
319651,3196.51,80
319731,3197.31,107
319809,3198.09,68
319888,3198.88,69
319973,3199.73,86
320056,3200.56,98
320086,3200.86,60
320136,3201.36,86
320216,3202.16,69
320298,3202.98,111
320377,3203.77,53
320458,3204.58,117
320540,3205.4,106
320570,3205.7,64
320620,3206.2,80
320707,3207.07,112
320786,3207.86,125
320865,3208.65,101
320943,3209.43,91
321019,3210.19,124
321097,3210.97,130
321174,3211.74,130
321204,3212.04,68
321253,3212.53,105
321333,3213.33,99
321411,3214.11,129
321445,3214.45,55
321490,3214.9,129
321568,3215.68,75
321647,3216.47,58
321727,3217.27,112
321807,3218.07,99
321891,3218.91,113
321977,3219.77,78
322064,3220.64,82
322151,3221.51,97
322240,3222.4,65
322329,3223.29,86
322416,3224.16,100
322505,3225.05,69
322593,3225.93,100
322679,3226.79,93
322767,3227.67,75
322856,3228.56,86
322944,3229.44,110
323029,3230.29,101
323115,3231.15,74
323200,3232.0,76
323285,3232.85,108
323370,3233.7,61
323453,3234.53,76
323535,3235.35,96
323615,3236.15,66
323695,3236.95,85
323777,3237.77,62
323856,3238.56,84
323936,3239.36,88
324020,3240.2,80
324103,3241.03,90
324135,3241.35,56
324184,3241.84,67
324267,3242.67,106
324351,3243.51,65
324382,3243.82,55
324431,3244.31,76
324516,3245.16,115
324600,3246.0,74
324629,3246.29,63
324681,3246.81,70
324770,3247.7,89
324852,3248.52,101
324880,3248.8,58
324936,3249.36,85
325023,3250.23,130
325104,3251.04,93
325189,3251.89,83
325274,3252.74,83
325302,3253.02,62
325357,3253.57,59
325446,3254.46,137
325479,3254.79,57
325527,3255.27,149
325607,3256.07,146
325685,3256.85,142
325714,3257.14,57
325761,3257.61,137
325835,3258.35,97
325865,3258.65,69
325907,3259.07,108
325938,3259.38,51
325979,3259.79,139
326049,3260.49,122
326080,3260.8,82
326118,3261.18,129
326147,3261.47,59
326187,3261.87,120
326257,3262.57,138
326288,3262.88,55
326329,3263.29,96
326402,3264.02,103
326476,3264.76,79
326554,3265.54,131
326634,3266.34,119
326719,3267.19,68
326807,3268.07,75
326894,3268.94,92
326984,3269.84,102
327076,3270.76,121
327162,3271.62,102
327252,3272.52,124
327343,3273.43,104
327433,3274.33,106
327521,3275.21,82
327607,3276.07,78
327695,3276.95,88
327781,3277.81,98
327866,3278.66,72
327952,3279.52,62
328037,3280.37,68
328121,3281.21,107
328203,3282.03,111
328285,3282.85,88
328364,3283.64,83
328441,3284.41,100
328519,3285.19,106
328600,3286.0,62
328684,3286.84,97
328767,3287.67,110
328852,3288.52,101
328936,3289.36,70
329018,3290.18,66
329105,3291.05,100
329186,3291.86,68
329269,3292.69,81
329360,3293.6,84
329390,3293.9,52
329448,3294.48,76
329479,3294.79,57
329540,3295.4,97
329631,3296.31,93
329662,3296.62,67
329718,3297.18,106
329810,3298.1,81
329842,3298.42,69
329898,3298.98,86
329991,3299.91,112
330023,3300.23,64
330075,3300.75,87
330108,3301.08,71
330158,3301.58,150
330239,3302.39,140
330316,3303.16,95
330347,3303.47,60
330394,3303.94,102
330469,3304.69,126
330545,3305.45,118
330620,3306.2,133
330696,3306.96,91
330772,3307.72,101
330848,3308.48,108
330925,3309.25,92
331002,3310.02,72
331082,3310.82,83
331165,3311.65,79
331250,3312.5,97
331336,3313.36,95
331427,3314.27,104
331608,3316.08,79
331703,3317.03,104
331797,3317.97,118
331889,3318.89,93
331980,3319.8,119
332074,3320.74,81
332168,3321.68,121
332257,3322.57,112
332349,3323.49,75
332440,3324.4,117
332527,3325.27,112
332615,3326.15,94
332700,3327.0,68
332786,3327.86,106
332870,3328.7,78
332953,3329.53,109
333035,3330.35,115
333115,3331.15,101
333194,3331.94,76
333274,3332.74,81
333352,3333.52,59
333434,3334.34,109
333517,3335.17,106
333598,3335.98,100
333682,3336.82,90
333762,3337.62,97
333845,3338.45,104
333933,3339.33,76
334015,3340.15,86
334102,3341.02,105
334184,3341.84,66
334267,3342.67,102
334353,3343.53,115
334434,3344.34,110
334515,3345.15,152
334594,3345.94,118
334626,3346.26,65
334671,3346.71,89
334747,3347.47,99
334820,3348.2,75
334851,3348.51,60
334895,3348.95,97
334969,3349.69,66
335044,3350.44,83
335119,3351.19,83
335195,3351.95,129
335226,3352.26,59
335270,3352.7,99
335347,3353.47,96
335424,3354.24,118
335502,3355.02,90
335581,3355.81,66
335662,3356.62,74
335745,3357.45,101
335827,3358.27,116
335910,3359.1,102
335992,3359.92,83
336074,3360.74,97
336155,3361.55,95
336239,3362.39,87
336324,3363.24,65
336407,3364.07,111
336494,3364.94,73
336582,3365.82,69
336671,3366.71,113
336758,3367.58,79
336846,3368.46,104
336931,3369.31,77
337015,3370.15,60
337099,3370.99,95
337181,3371.81,71
337263,3372.63,97
337342,3373.42,87
337423,3374.23,104
337502,3375.02,70
337582,3375.82,72
337660,3376.6,62
337739,3377.39,105
337819,3378.19,97
337897,3378.97,76
337976,3379.76,90
338057,3380.57,93
338138,3381.38,99
338218,3382.18,76
338380,3383.8,112
338458,3384.58,65
338537,3385.37,58
338622,3386.22,117
338700,3387.0,67
338730,3387.3,64
338782,3387.82,92
338868,3388.68,120
338946,3389.46,67
339026,3390.26,99
339057,3390.57,61
339103,3391.03,155
339136,3391.36,58
339177,3391.77,120
339250,3392.5,134
339280,3392.8,69
339320,3393.2,107
339390,3393.9,96
339421,3394.21,71
339460,3394.6,120
339529,3395.29,87
339559,3395.59,63
339597,3395.97,95
339665,3396.65,65
339695,3396.95,61
339734,3397.34,116
339801,3398.01,134
339822,3398.22,62
339835,3398.35,64
339837,3398.37,58
339850,3398.5,198
339869,3398.69,80
339890,3398.9,152
339895,3398.95,156
339937,3399.37,59
340006,3400.06,75
340141,3401.41,65
340193,3401.93,68
340207,3402.07,143
340234,3402.34,79
340273,3402.73,71
340338,3403.38,69
340389,3403.89,79
340406,3404.06,86
340409,3404.09,148
340416,3404.16,72
340421,3404.21,138
340432,3404.32,109
340456,3404.56,99
340459,3404.59,88
340465,3404.65,223
340510,3405.1,80
340528,3405.28,65
340533,3405.33,125
340594,3405.94,98
340657,3406.57,64
340905,3409.05,77
341028,3410.28,75
341090,3410.9,66
341344,3413.44,75
341409,3414.09,68
341479,3414.79,66
341637,3416.37,72
341719,3417.19,68
341888,3418.88,88
341973,3419.73,109
342056,3420.56,93
342137,3421.37,83
342222,3422.22,99
342305,3423.05,86
342391,3423.91,129
342472,3424.72,93
342554,3425.54,99
342635,3426.35,103
342713,3427.13,111
342792,3427.92,115
342872,3428.72,78
342950,3429.5,76
343032,3430.32,117
343112,3431.12,87
343191,3431.91,123
343272,3432.72,128
343348,3433.48,124
343424,3434.24,140
343499,3434.99,86
343571,3435.71,77
343642,3436.42,92
343671,3436.71,72
343713,3437.13,101
343783,3437.83,103
343853,3438.53,98
343923,3439.23,78
343995,3439.95,92
344066,3440.66,108
344138,3441.38,101
344211,3442.11,64
344283,3442.83,66
344357,3443.57,82
344507,3445.07,79
344581,3445.81,89
344734,3447.34,75
344889,3448.89,77
344968,3449.68,80
345219,3452.19,65
345396,3453.96,70
345483,3454.83,68
345571,3455.71,99
345657,3456.57,68
345743,3457.43,94
345827,3458.27,84
345909,3459.09,78
345989,3459.89,77
346068,3460.68,79
346145,3461.45,88
346298,3462.98,67
346376,3463.76,76
346611,3466.11,80
346688,3466.88,66
346842,3468.42,79
346916,3469.16,85
346988,3469.88,119
347059,3470.59,135
347128,3471.28,75
347198,3471.98,90
347267,3472.67,70
347335,3473.35,86
347403,3474.03,77
347431,3474.31,75
347500,3475.0,68
347538,3475.38,119
347605,3476.05,100
347672,3476.72,87
347738,3477.38,71
347805,3478.05,89
347872,3478.72,74
347968,3479.68,64
348072,3480.72,67
348206,3482.06,84
348273,3482.73,78
348339,3483.39,86
348405,3484.05,97
348472,3484.72,87
348540,3485.4,65
348611,3486.11,107
348686,3486.86,87
348763,3487.63,112
348843,3488.43,110
348922,3489.22,78
349004,3490.04,95
349085,3490.85,83
349166,3491.66,105
349325,3493.25,89
349401,3494.01,104
349477,3494.77,64
349551,3495.51,69
349626,3496.26,84
349700,3497.0,75
349730,3497.3,59
349850,3498.5,88
349927,3499.27,68
350004,3500.04,102
350082,3500.82,100
350160,3501.6,98
350236,3502.36,102
350314,3503.14,105
350391,3503.91,84
350467,3504.67,129
350543,3505.43,118
350619,3506.19,98
350693,3506.93,107
350767,3507.67,125
350841,3508.41,103
350914,3509.14,72
350986,3509.86,119
351058,3510.58,125
351129,3511.29,72
351201,3512.01,100
351271,3512.71,82
351344,3513.44,125
351417,3514.17,92
351492,3514.92,85
351565,3515.65,88
351643,3516.43,97
351721,3517.21,106
351802,3518.02,95
351883,3518.83,79
351966,3519.66,112
352047,3520.47,117
352133,3521.33,110
352218,3522.18,109
352300,3523.0,102
352383,3523.83,105
352465,3524.65,103
352547,3525.47,86
352628,3526.28,102
352706,3527.06,102
352784,3527.84,103
352860,3528.6,69
352935,3529.35,85
353010,3530.1,59
353157,3531.57,96
353230,3532.3,73
353303,3533.03,87
353378,3533.78,96
353453,3534.53,89
353527,3535.27,86
353604,3536.04,59
353682,3536.82,102
353757,3537.57,124
353786,3537.86,109
353832,3538.32,152
353862,3538.62,71
353906,3539.06,127
353980,3539.8,73
354054,3540.54,97
354083,3540.83,68
354125,3541.25,69
354154,3541.54,77
354196,3541.96,107
354267,3542.67,70
354340,3543.4,110
354412,3544.12,113
354486,3544.86,118
354563,3545.63,93
354641,3546.41,104
354721,3547.21,74
354803,3548.03,106
354887,3548.87,98
354970,3549.7,67
355055,3550.55,83
355138,3551.38,83
355220,3552.2,106
355306,3553.06,84
355388,3553.88,60
355470,3554.7,74
355553,3555.53,94
355634,3556.34,87
355715,3557.15,71
355796,3557.96,94
355877,3558.77,93
356041,3560.41,78
356123,3561.23,99
356204,3562.04,76
356282,3562.82,63
356361,3563.61,73
356440,3564.4,110
356515,3565.15,89
356591,3565.91,82
356741,3567.41,90
356817,3568.17,99
356967,3569.67,101
357045,3570.45,99
357120,3571.2,98
357150,3571.5,63
357197,3571.97,73
357274,3572.74,73
357350,3573.5,97
357426,3574.26,93
357503,3575.03,143
357579,3575.79,91
357653,3576.53,106
357729,3577.29,92
357803,3578.03,60
357878,3578.78,107
357954,3579.54,126
358029,3580.29,76
358104,3581.04,110
358180,3581.8,113
358255,3582.55,63
358331,3583.31,68
358408,3584.08,92
358486,3584.86,80
358564,3585.64,86
358641,3586.41,98
358719,3587.19,70
358796,3587.96,80
358874,3588.74,81
358952,3589.52,87
359032,3590.32,100
359114,3591.14,95
359195,3591.95,74
359281,3592.81,66
359367,3593.67,86
359454,3594.54,102
359538,3595.38,89
359627,3596.27,71
359713,3597.13,104
359795,3597.95,79
359877,3598.77,101
360119,3601.19,78
360195,3601.95,97
360271,3602.71,94
360346,3603.46,73
360420,3604.2,87
360495,3604.95,92
360569,3605.69,68
360644,3606.44,125
360719,3607.19,90
360793,3607.93,98
360867,3608.67,103
360940,3609.4,112
361014,3610.14,75
361162,3611.62,103
361192,3611.92,57
361237,3612.37,125
361311,3613.11,80
361461,3614.61,91
361537,3615.37,78
361615,3616.15,108
361693,3616.93,103
361776,3617.76,66
361861,3618.61,100
361945,3619.45,105
362033,3620.33,84
362119,3621.19,70
362205,3622.05,99
362291,3622.91,84
362374,3623.74,75
362457,3624.57,90
362539,3625.39,77
362620,3626.2,102
362698,3626.98,92
362777,3627.77,98
362855,3628.55,82
362934,3629.34,95
363011,3630.11,98
363088,3630.88,81
363167,3631.67,93
363245,3632.45,75
363322,3633.22,67
363400,3634.0,85
363479,3634.79,88
363558,3635.58,56
363589,3635.89,59
363636,3636.36,65
363715,3637.15,82
363794,3637.94,58
363825,3638.25,68
363902,3639.02,61
363954,3639.54,114
364040,3640.4,100
364072,3640.72,61
364200,3642.0,113
364229,3642.29,60
364275,3642.75,118
364348,3643.48,161
364378,3643.78,89
364420,3644.2,135
364449,3644.49,65
364491,3644.91,81
364564,3645.64,90
364593,3645.93,75
364635,3646.35,80
364709,3647.09,79
364784,3647.84,132
364860,3648.6,113
364936,3649.36,83
365013,3650.13,122
365091,3650.91,111
365169,3651.69,110
365246,3652.46,84
365325,3653.25,104
365403,3654.03,66
365481,3654.81,112
365560,3655.6,104
365638,3656.38,69
365715,3657.15,101
365791,3657.91,75
365869,3658.69,68
366022,3660.22,92
366100,3661.0,83
366180,3661.8,70
366258,3662.58,63
366337,3663.37,69
366418,3664.18,78
366498,3664.98,93
366577,3665.77,92
366657,3666.57,91
366737,3667.37,81
366817,3668.17,87
366897,3668.97,70
366978,3669.78,72
367059,3670.59,79
367142,3671.42,94
367226,3672.26,87
367309,3673.09,63
367392,3673.92,96
367472,3674.72,92
367627,3676.27,65
367706,3677.06,77
367784,3677.84,69
367862,3678.62,85
367942,3679.42,87
368020,3680.2,94
368097,3680.97,58
368176,3681.76,71
368254,3682.54,86
368329,3683.29,78
368403,3684.03,68
368477,3684.77,71
368549,3685.49,61
368622,3686.22,59
368696,3686.96,100
368767,3687.67,71
368798,3687.98,62
368841,3688.41,119
368913,3689.13,97
368986,3689.86,111
369058,3690.58,92
369131,3691.31,95
369204,3692.04,91
369276,3692.76,107
369349,3693.49,94
369423,3694.23,104
369496,3694.96,57
369571,3695.71,113
369647,3696.47,60
369724,3697.24,105
369802,3698.02,112
369881,3698.81,60
369963,3699.63,87
370047,3700.47,91
370130,3701.3,97
370215,3702.15,99
370303,3703.03,68
370392,3703.92,83
370482,3704.82,88
370572,3705.72,83
370663,3706.63,105
370752,3707.52,77
370840,3708.4,62
370929,3709.29,75
371016,3710.16,79
371103,3711.03,98
371189,3711.89,100
371274,3712.74,63
371357,3713.57,68
371440,3714.4,86
371523,3715.23,65
371605,3716.05,103
371687,3716.87,99
371768,3717.68,94
371845,3718.45,93
371924,3719.24,90
372002,3720.02,88
372083,3720.83,63
372162,3721.62,64
372243,3722.43,101
372325,3723.25,92
372405,3724.05,93
372484,3724.84,98
372565,3725.65,104
372644,3726.44,84
372676,3726.76,57
372806,3728.06,96
372883,3728.83,75
372914,3729.14,65
372963,3729.63,68
373046,3730.46,116
373124,3731.24,86
373204,3732.04,118
373282,3732.82,141
373313,3733.13,73
373358,3733.58,133
373389,3733.89,58
373433,3734.33,108
373508,3735.08,103
373538,3735.38,61
373581,3735.81,69
373652,3736.52,126
373681,3736.81,67
373723,3737.23,118
373794,3737.94,114
373864,3738.64,97
373935,3739.35,118
374005,3740.05,81
374035,3740.35,67
374075,3740.75,65
374147,3741.47,106
374221,3742.21,90
374295,3742.95,87
374373,3743.73,117
374452,3744.52,108
374532,3745.32,67
374611,3746.11,74
374693,3746.93,77
374773,3747.73,94
374853,3748.53,85
374932,3749.32,70
375013,3750.13,71
375094,3750.94,63
375176,3751.76,69
375256,3752.56,90
375338,3753.38,95
375417,3754.17,58
375498,3754.98,110
375575,3755.75,151
375596,3755.96,161
375652,3756.52,115
375683,3756.83,66
375700,3757.0,201
375728,3757.28,104
375801,3758.01,94
375873,3758.73,70
375943,3759.43,58
376012,3760.12,60
376356,3763.56,57
376430,3764.3,59
376505,3765.05,73
376583,3765.83,61
376666,3766.66,92
376752,3767.52,75
376844,3768.44,96
376934,3769.34,75
377022,3770.22,95
377111,3771.11,81
377197,3771.97,58
377280,3772.8,108
377362,3773.62,67
377443,3774.43,90
377600,3776.0,76
377677,3776.77,68
377753,3777.53,88
377831,3778.31,82
377909,3779.09,67
377990,3779.9,97
378069,3780.69,90
378150,3781.5,100
378233,3782.33,123
378262,3782.62,62
378393,3783.93,116
378424,3784.24,66
378470,3784.7,158
378546,3785.46,142
378621,3786.21,67
378695,3786.95,114
378769,3787.69,82
378844,3788.44,108
378917,3789.17,78
378993,3789.93,106
379067,3790.67,75
379142,3791.42,79
379217,3792.17,95
379293,3792.93,63
379368,3793.68,107
379442,3794.42,105
379517,3795.17,90
379593,3795.93,66
379669,3796.69,76
379746,3797.46,104
379824,3798.24,86
379904,3799.04,97
379982,3799.82,99
380066,3800.66,61
380150,3801.5,87
380234,3802.34,68
380293,3802.93,201
380320,3803.2,90
380406,3804.06,59
380493,3804.93,96
380580,3805.8,91
380666,3806.66,67
380754,3807.54,81
380840,3808.4,77
380923,3809.23,94
381005,3810.05,78
381088,3810.88,90
381170,3811.7,85
381252,3812.52,55
381334,3813.34,62
381417,3814.17,66
381497,3814.97,84
381576,3815.76,101
381654,3816.54,103
381731,3817.31,88
381807,3818.07,86
381882,3818.82,91
381957,3819.57,78
382034,3820.34,65
382111,3821.11,93
382188,3821.88,67
382267,3822.67,101
382347,3823.47,104
382426,3824.26,87
382505,3825.05,84
382585,3825.85,83
382663,3826.63,89
382740,3827.4,88
382771,3827.71,56
382820,3828.2,109
382903,3829.03,102
382934,3829.34,61
382980,3829.8,104
383059,3830.59,139
383136,3831.36,140
383212,3832.12,95
383285,3832.85,92
383315,3833.15,56
383359,3833.59,99
383432,3834.32,104
383461,3834.61,67
383503,3835.03,69
383575,3835.75,64
383647,3836.47,120
383676,3836.76,73
383719,3837.19,119
383790,3837.9,67
383863,3838.63,106
383893,3838.93,58
383935,3839.35,120
384007,3840.07,87
384080,3840.8,75
384153,3841.53,65
384229,3842.29,88
384307,3843.07,77
384388,3843.88,90
384467,3844.67,69
384551,3845.51,101
384637,3846.37,104
384720,3847.2,87
384812,3848.12,72
384912,3849.12,106
384999,3849.99,74
385085,3850.85,86
385170,3851.7,100
385254,3852.54,56
385337,3853.37,59
385418,3854.18,61
385498,3854.98,61
385579,3855.79,90
385658,3856.58,55
385738,3857.38,81
385818,3858.18,75
385896,3858.96,93
385972,3859.72,77
386050,3860.5,93
386129,3861.29,92
386213,3862.13,72
386294,3862.94,104
386373,3863.73,62
386453,3864.53,63
386533,3865.33,91
386612,3866.12,88
386692,3866.92,92
386777,3867.77,79
386859,3868.59,63
386888,3868.88,65
386941,3869.41,90
387027,3870.27,113
387116,3871.16,67
387198,3871.98,105
387282,3872.82,119
387364,3873.64,78
387443,3874.43,91
387474,3874.74,60
387525,3875.25,84
387608,3876.08,73
387688,3876.88,84
387718,3877.18,64
387767,3877.67,92
387787,3877.87,67
387797,3877.97,74
387844,3878.44,83
387876,3878.76,90
387904,3879.04,59
387919,3879.19,114
387950,3879.5,71
387992,3879.92,95
388024,3880.24,55
388065,3880.65,79
388137,3881.37,75
388169,3881.69,64
388209,3882.09,91
388240,3882.4,56
388281,3882.81,69
388354,3883.54,105
388384,3883.84,61
388427,3884.27,124
388500,3885.0,78
388573,3885.73,97
388647,3886.47,74
388722,3887.22,80
388798,3887.98,100
388874,3888.74,95
388952,3889.52,79
389032,3890.32,63
389112,3891.12,98
389191,3891.91,99
389272,3892.72,98
389354,3893.54,113
389434,3894.34,84
389516,3895.16,102
389600,3896.0,96
389682,3896.82,76
389768,3897.68,88
389853,3898.53,62
389936,3899.36,72
390020,3900.2,68
390102,3901.02,66
390184,3901.84,85
390344,3903.44,64
390424,3904.24,58
390502,3905.02,87
390579,3905.79,79
390656,3906.56,93
390731,3907.31,58
390808,3908.08,81
390885,3908.85,85
390963,3909.63,90
391040,3910.4,84
391119,3911.19,101
391197,3911.97,71
391275,3912.75,95
391305,3913.05,54
391432,3914.32,67
391513,3915.13,93
391593,3915.93,95
391673,3916.73,68
391754,3917.54,107
391835,3918.35,104
391917,3919.17,90
391997,3919.97,103
392079,3920.79,122
392157,3921.57,61
392188,3921.88,55
392238,3922.38,72
392322,3923.22,115
392353,3923.53,66
392400,3924.0,99
392429,3924.29,60
392477,3924.77,117
392552,3925.52,102
392582,3925.82,77
392626,3926.26,108
392699,3926.99,98
392772,3927.72,107
392802,3928.02,60
392845,3928.45,123
392918,3929.18,105
392947,3929.47,68
392990,3929.9,101
393021,3930.21,54
393062,3930.62,61
393135,3931.35,109
393165,3931.65,60
393207,3932.07,101
393279,3932.79,72
393352,3933.52,82
393424,3934.24,92
393497,3934.97,108
393570,3935.7,77
393643,3936.43,85
393715,3937.15,94
393789,3937.89,89
393863,3938.63,73
393939,3939.39,98
394017,3940.17,87
394099,3940.99,62
394186,3941.86,83
394271,3942.71,106
394363,3943.63,98
394459,3944.59,59
394552,3945.52,100
394639,3946.39,99
394725,3947.25,98
394808,3948.08,74
394890,3948.9,56
394972,3949.72,77
395050,3950.5,75
395127,3951.27,81
395203,3952.03,66
395350,3953.5,61
395424,3954.24,66
395573,3955.73,58
395648,3956.48,88
395723,3957.23,100
395797,3957.97,64
395874,3958.74,107
395951,3959.51,99
396029,3960.29,94
396105,3961.05,100
396183,3961.83,95
396262,3962.62,80
396339,3963.39,62
396416,3964.16,99
396495,3964.95,90
396577,3965.77,73
396657,3966.57,89
396688,3966.88,62
396737,3967.37,58
396817,3968.17,111
396894,3968.94,69
396971,3969.71,77
397055,3970.55,110
397133,3971.33,78
397163,3971.63,66
397217,3972.17,92
397299,3972.99,102
397330,3973.3,58
397379,3973.79,90
397409,3974.09,80
397459,3974.59,117
397491,3974.91,83
397536,3975.36,88
397568,3975.68,81
397612,3976.12,77
397641,3976.41,57
397687,3976.87,118
397761,3977.61,135
397792,3977.92,73
397834,3978.34,131
397864,3978.64,56
397906,3979.06,103
397977,3979.77,109
398006,3980.06,56
398048,3980.48,98
398118,3981.18,62
398189,3981.89,79
398261,3982.61,101
398333,3983.33,76
398405,3984.05,65
398479,3984.79,71
398555,3985.55,61
398632,3986.32,70
398708,3987.08,90
398787,3987.87,61
398865,3988.65,88
398943,3989.43,55
399024,3990.24,81
399110,3991.1,78
399200,3992.0,114
399286,3992.86,76
399376,3993.76,108
399465,3994.65,58
399551,3995.51,99
399637,3996.37,101
399720,3997.2,79
399802,3998.02,94
399884,3998.84,81
399966,3999.66,98
400046,4000.46,97
400124,4001.24,102
400201,4002.01,79
400278,4002.78,94
400353,4003.53,92
400429,4004.29,68
400505,4005.05,65
400581,4005.81,96
400656,4006.56,63
400734,4007.34,102
400812,4008.12,60
400891,4008.91,100
400969,4009.69,99
401048,4010.48,109
401126,4011.26,66
401203,4012.03,61
401282,4012.82,106
401363,4013.63,76
401443,4014.43,66
401523,4015.23,91
401604,4016.04,97
401682,4016.82,56
401713,4017.13,56
401761,4017.61,76
401841,4018.41,87
401918,4019.18,84
401948,4019.48,55
401996,4019.96,85
402079,4020.79,99
402109,4021.09,53
402156,4021.56,118
402235,4022.35,95
402265,4022.65,65
402311,4023.11,148
402342,4023.42,54
402385,4023.85,127
402415,4024.15,82
402457,4024.57,73
402487,4024.87,60
402529,4025.29,119
402559,4025.59,75
402599,4025.99,82
402627,4026.27,66
402670,4026.7,65
402740,4027.4,107
402769,4027.69,59
402811,4028.11,104
402882,4028.82,102
402912,4029.12,66
402952,4029.52,103
403022,4030.22,70
403092,4030.92,68
403163,4031.63,73
403235,4032.35,85
403306,4033.06,57
403379,4033.79,96
403455,4034.55,59
403531,4035.31,83
403604,4036.04,71
403680,4036.8,90
403756,4037.56,92
403991,4039.91,70
404074,4040.74,62
404156,4041.56,74
404238,4042.38,97
404322,4043.22,96
404407,4044.07,73
404493,4044.93,92
404577,4045.77,87
404662,4046.62,65
404743,4047.43,101
404822,4048.22,54
404901,4049.01,80
404980,4049.8,84
405058,4050.58,84
405138,4051.38,64
405215,4052.15,101
405290,4052.9,76
405367,4053.67,69
405443,4054.43,68
405520,4055.2,63
405598,4055.98,76
405682,4056.82,85
405765,4057.65,110
405844,4058.44,55
405926,4059.26,106
406008,4060.08,68
406091,4060.91,107
406170,4061.7,86
406249,4062.49,112
406329,4063.29,77
406408,4064.08,82
406438,4064.38,67
406487,4064.87,71
406569,4065.69,127
406646,4066.46,81
406675,4066.75,56
406726,4067.26,106
406809,4068.09,92
406839,4068.39,63
406886,4068.86,64
406969,4069.69,110
407048,4070.48,127
407078,4070.78,61
407125,4071.25,126
407153,4071.53,62
407202,4072.02,135
407233,4072.33,69
407275,4072.75,88
407305,4073.05,53
407348,4073.48,92
407379,4073.79,72
407418,4074.18,106
407449,4074.49,64
407487,4074.87,114
407517,4075.17,72
407556,4075.56,120
407625,4076.25,134
407655,4076.55,59
407694,4076.94,107
407763,4077.63,119
407832,4078.32,81
407903,4079.03,94
407975,4079.75,63
408004,4080.04,59
408047,4080.47,87
408122,4081.22,89
408276,4082.76,72
408356,4083.56,102
408437,4084.37,97
408520,4085.2,106
408599,4085.99,63
408687,4086.87,109
408777,4087.77,111
408864,4088.64,78
408950,4089.5,68
409036,4090.36,56
409123,4091.23,81
409204,4092.04,88
409287,4092.87,93
409372,4093.72,90
409455,4094.55,97
409536,4095.36,59
409616,4096.16,53
409696,4096.96,88
409774,4097.74,98
409850,4098.5,111
409927,4099.27,107
410012,4100.12,70
410095,4100.95,98
410178,4101.78,75
410264,4102.64,80
410344,4103.44,98
410425,4104.25,116
410507,4105.07,92
410587,4105.87,86
410668,4106.68,109
410752,4107.52,71
410840,4108.4,100
410871,4108.71,53
410921,4109.21,67
411005,4110.05,87
411087,4110.87,90
411166,4111.66,66
411197,4111.97,58
411251,4112.51,102
411338,4113.38,57
411368,4113.68,54
411418,4114.18,75
411505,4115.05,90
411536,4115.36,65
411584,4115.84,115
411612,4116.12,58
411661,4116.61,115
411692,4116.92,67
411735,4117.35,120
411767,4117.67,61
411809,4118.09,146
411881,4118.81,104
411910,4119.1,96
411953,4119.53,120
411983,4119.83,65
412025,4120.25,92
412052,4120.52,71
412095,4120.95,110
412165,4121.65,81
412194,4121.94,65
412235,4122.35,113
412264,4122.64,63
412304,4123.04,91
412374,4123.74,81
412445,4124.45,121
412517,4125.17,112
412590,4125.9,87
412665,4126.65,101
412740,4127.4,58
412819,4128.19,104
412898,4128.98,107
413055,4130.55,106
413134,4131.34,59
413213,4132.13,107
413291,4132.91,66
413372,4133.72,78
413458,4134.58,85
413545,4135.45,63
413629,4136.29,91
413715,4137.15,103
413804,4138.04,84
413891,4138.91,80
413975,4139.75,95
414059,4140.59,64
414144,4141.44,100
414230,4142.3,90
414311,4143.11,110
414392,4143.92,108
414472,4144.72,69
414552,4145.52,87
414631,4146.31,105
414712,4147.12,57
414793,4147.93,82
414871,4148.71,80
414950,4149.5,73
415033,4150.33,88
415118,4151.18,78
415197,4151.97,80
415276,4152.76,85
415357,4153.57,103
415435,4154.35,67
415463,4154.63,55
415513,4155.13,81
415597,4155.97,115
415627,4156.27,55
415675,4156.75,93
415706,4157.06,57
415755,4157.55,105
415836,4158.36,123
415866,4158.66,56
415913,4159.13,58
415995,4159.95,114
416025,4160.25,61
416071,4160.71,144
416100,4161.0,71
416147,4161.47,134
416222,4162.22,106
416252,4162.52,67
416294,4162.94,70
416325,4163.25,60
416368,4163.68,101
416397,4163.97,63
416440,4164.4,113
416512,4165.12,104
416584,4165.84,118
416614,4166.14,56
416728,4167.28,90
416800,4168.0,112
416874,4168.74,112
416948,4169.48,70
417024,4170.24,82
417098,4170.98,55
417175,4171.75,82
417326,4173.26,71
417400,4174.0,54
417476,4174.76,63
417552,4175.52,62
417630,4176.3,88
417706,4177.06,101
417787,4177.87,64
417869,4178.69,66
417950,4179.5,92
418033,4180.33,80
418117,4181.17,100
418199,4181.99,57
418281,4182.81,60
418363,4183.63,86
418444,4184.44,103
418523,4185.23,96
418601,4186.01,87
418678,4186.78,107
418753,4187.53,73
418828,4188.28,89
418904,4189.04,76
418979,4189.79,71
419055,4190.55,90
419133,4191.33,103
419213,4192.13,96
419293,4192.93,110
419372,4193.72,67
419454,4194.54,109
419536,4195.36,76
419615,4196.15,53
419696,4196.96,69
419779,4197.79,77
419860,4198.6,85
419940,4199.4,92
420022,4200.22,130
420098,4200.98,88
420127,4201.27,64
420177,4201.77,89
420262,4202.62,124
420291,4202.91,56
420340,4203.4,135
420370,4203.7,58
420418,4204.18,104
420447,4204.47,62
420493,4204.93,122
420565,4205.65,68
420594,4205.94,61
420635,4206.35,91
420666,4206.66,52
420705,4207.05,85
420735,4207.35,67
420775,4207.75,126
420807,4208.07,77
420844,4208.44,68
420874,4208.74,63
420914,4209.14,109
420985,4209.85,87
421056,4210.56,93
421127,4211.27,109
421198,4211.98,83
421269,4212.69,79
421342,4213.42,106
421415,4214.15,87
421489,4214.89,64
421564,4215.64,90
421643,4216.43,94
421724,4217.24,94
421807,4218.07,76
421888,4218.88,104
421973,4219.73,88
422060,4220.6,73
422149,4221.49,107
422236,4222.36,71
422333,4223.33,71
422424,4224.24,114
422512,4225.12,114
422603,4226.03,105
422689,4226.89,116
422771,4227.71,99
422853,4228.53,82
422935,4229.35,104
423013,4230.13,89
423092,4230.92,82
423170,4231.7,71
423249,4232.49,97
423325,4233.25,59
423403,4234.03,110
423481,4234.81,88
423560,4235.6,104
423637,4236.37,84
423718,4237.18,91
423799,4237.99,91
423827,4238.27,52
423880,4238.8,100
423962,4239.62,113
424045,4240.45,74
424126,4241.26,89
424208,4242.08,117
424293,4242.93,134
424324,4243.24,53
424373,4243.73,79
424455,4244.55,90
424534,4245.34,69
424613,4246.13,93
424694,4246.94,100
424724,4247.24,61
424799,4247.99,52
424851,4248.51,126
424932,4249.32,100
424963,4249.63,54
425011,4250.11,103
425090,4250.9,134
425119,4251.19,60
425166,4251.66,101
425196,4251.96,56
425240,4252.4,153
425314,4253.14,125
425346,4253.46,54
425386,4253.86,125
425415,4254.15,63
425457,4254.57,71
425489,4254.89,62
425529,4255.29,106
425559,4255.59,57
425601,4256.01,57
425672,4256.72,101
425704,4257.04,59
425743,4257.43,78
425815,4258.15,98
425845,4258.45,52
425886,4258.86,58
425959,4259.59,78
426031,4260.31,56
426104,4261.04,100
426178,4261.78,84
426252,4262.52,78
426326,4263.26,57
426401,4264.01,85
426477,4264.77,94
426553,4265.53,103
426629,4266.29,57
426706,4267.06,62
426783,4267.83,103
426861,4268.61,70
426943,4269.43,93
427026,4270.26,98
427106,4271.06,62
427191,4271.91,95
427281,4272.81,88
427376,4273.76,109
427467,4274.67,73
427550,4275.5,115
427631,4276.31,103
427710,4277.1,70
427787,4277.87,89
427865,4278.65,75
427941,4279.41,59
428017,4280.17,72
428091,4280.91,63
428164,4281.64,76
428238,4282.38,78
428312,4283.12,75
428390,4283.9,104
428465,4284.65,84
428542,4285.42,107
428619,4286.19,102
428696,4286.96,103
428727,4287.27,57
428853,4288.53,90
428933,4289.33,61
429011,4290.11,61
429093,4290.93,87
429170,4291.7,67
429249,4292.49,87
429333,4293.33,107
429411,4294.11,69
429490,4294.9,102
429521,4295.21,67
429566,4295.66,127
429596,4295.96,79
429640,4296.4,205
429664,4296.64,106
429671,4296.71,114
429673,4296.73,86
429678,4296.78,111
429712,4297.12,128
429783,4297.83,125
429792,4297.92,60
429810,4298.1,135
429813,4298.13,101
429828,4298.28,79
429837,4298.37,84
429850,4298.5,117
429870,4298.7,125
429880,4298.8,80
429918,4299.18,75
429986,4299.86,128
430052,4300.52,125
430117,4301.17,106
430181,4301.81,104
430244,4302.44,102
430307,4303.07,113
430369,4303.69,92
430430,4304.3,100
430491,4304.91,94
430552,4305.52,116
430613,4306.13,88
430674,4306.74,100
430810,4308.1,94
430882,4308.82,68
430960,4309.6,93
431039,4310.39,110
431123,4311.23,124
431212,4312.12,82
431303,4313.03,132
431394,4313.94,140
431488,4314.88,127
431583,4315.83,138
431677,4316.77,112
431770,4317.7,141
431863,4318.63,113
431955,4319.55,115
432046,4320.46,125
432136,4321.36,115
432224,4322.24,118
432311,4323.11,128
432397,4323.97,127
432483,4324.83,124
432566,4325.66,118
432649,4326.49,93
432731,4327.31,99
432813,4328.13,79
432894,4328.94,114
432973,4329.73,102
433050,4330.5,63
433129,4331.29,111
433156,4331.56,58
433206,4332.06,158
433281,4332.81,136
433354,4333.54,73
433428,4334.28,78
433501,4335.01,77
433648,4336.48,87
433677,4336.77,60
433721,4337.21,62
433793,4337.93,71
433866,4338.66,92
433936,4339.36,92
434007,4340.07,97
434151,4341.51,89
434223,4342.23,60
434300,4343.0,72
434376,4343.76,92
434453,4344.53,76
434536,4345.36,62
434619,4346.19,66
434705,4347.05,106
434789,4347.89,68
434875,4348.75,100
435040,4350.4,90
435120,4351.2,77
435201,4352.01,69
435283,4352.83,63
435364,4353.64,95
435443,4354.43,73
435520,4355.2,84
435596,4355.96,74
435672,4356.72,92
435747,4357.47,68
435821,4358.21,90
435896,4358.96,96
435973,4359.73,61
436052,4360.52,78
436127,4361.27,68
436204,4362.04,90
436282,4362.82,90
436359,4363.59,57
436437,4364.37,91
436517,4365.17,67
436599,4365.99,83
436677,4366.77,72
436758,4367.58,82
436837,4368.37,107
436913,4369.13,125
436943,4369.43,60
436988,4369.88,135
437063,4370.63,109
437136,4371.36,138
437165,4371.65,72
437209,4372.09,126
437282,4372.82,73
437354,4373.54,94
437427,4374.27,82
437574,4375.74,80
437648,4376.48,113
437722,4377.22,85
437795,4377.95,113
437867,4378.67,65
437940,4379.4,74
438013,4380.13,81
438085,4380.85,92
438157,4381.57,87
438230,4382.3,64
438377,4383.77,89
438452,4384.52,72
438529,4385.29,57
438605,4386.05,59
438682,4386.82,66
438759,4387.59,81
438836,4388.36,64
438912,4389.12,79
438987,4389.87,66
439060,4390.6,76
439132,4391.32,65
439340,4393.4,84
439407,4394.07,67
439473,4394.73,66
439604,4396.04,90
439668,4396.68,66
439733,4397.33,79
439797,4397.97,58
439861,4398.61,61
439926,4399.26,76
439992,4399.92,72
440058,4400.58,82
440126,4401.26,111
440194,4401.94,67
440264,4402.64,90
440333,4403.33,61
440387,4403.87,58
440402,4404.02,100
440471,4404.71,85
440540,4405.4,80
440609,4406.09,91
440677,4406.77,83
440745,4407.45,81
440812,4408.12,63
440879,4408.79,76
441083,4410.83,80
441153,4411.53,76
441226,4412.26,75
441301,4413.01,78
441377,4413.77,70
441457,4414.57,67
441536,4415.36,65
441616,4416.16,66
441697,4416.97,99
441775,4417.75,62
441853,4418.53,82
441928,4419.28,96
442002,4420.02,81
442075,4420.75,73
442145,4421.45,104
442215,4422.15,85
442286,4422.86,84
442356,4423.56,86
442384,4423.84,61
442495,4424.95,107
442564,4425.64,63
442634,4426.34,69
442703,4427.03,57
442732,4427.32,70
442774,4427.74,110
442844,4428.44,74
442916,4429.16,72
442945,4429.45,64
443061,4430.61,104
443134,4431.34,100
443208,4432.08,88
443281,4432.81,98
443354,4433.54,111
443428,4434.28,62
443505,4435.05,62
443657,4436.57,93
443734,4437.34,101
443810,4438.1,82
443887,4438.87,62
443962,4439.62,69
444037,4440.37,77
444111,4441.11,95
444185,4441.85,82
444259,4442.59,73
444332,4443.32,93
444405,4444.05,91
444478,4444.78,78
444550,4445.5,63
444623,4446.23,83
444694,4446.94,88
444766,4447.66,93
444837,4448.37,85
444907,4449.07,92
444977,4449.77,94
445047,4450.47,73
445116,4451.16,83
445186,4451.86,57
445259,4452.59,88
445331,4453.31,71
445405,4454.05,110
445480,4454.8,118
445509,4455.09,67
445553,4455.53,85
445627,4456.27,97
445657,4456.57,60
445701,4457.01,108
445731,4457.31,58
445774,4457.74,96
445845,4458.45,97
445916,4459.16,124
445987,4459.87,76
446059,4460.59,79
446129,4461.29,90
446200,4462.0,73
446271,4462.71,74
446343,4463.43,98
446416,4464.16,87
446489,4464.89,106
446562,4465.62,101
446636,4466.36,71
446711,4467.11,74
446786,4467.86,72
446861,4468.61,69
446939,4469.39,96
447017,4470.17,74
447094,4470.94,98
447171,4471.71,79
447249,4472.49,86
447327,4473.27,64
447405,4474.05,68
447484,4474.84,94
447563,4475.63,59
447642,4476.42,71
447722,4477.22,93
447799,4477.99,105
447877,4478.77,99
447955,4479.55,80
448031,4480.31,55
448108,4481.08,60
448185,4481.85,62
448261,4482.61,58
448340,4483.4,99
448418,4484.18,78
448498,4484.98,68
448578,4485.78,86
448658,4486.58,88
448735,4487.35,92
448813,4488.13,80
448890,4488.9,77
448963,4489.63,62
449037,4490.37,93
449111,4491.11,54
449182,4491.82,57
449254,4492.54,60
449325,4493.25,55
449399,4493.99,90
449474,4494.74,68
449503,4495.03,61
449548,4495.48,76
449626,4496.26,108
449699,4496.99,68
449728,4497.28,66
449774,4497.74,142
449848,4498.48,126
449920,4499.2,69
449991,4499.91,110
450020,4500.2,62
450061,4500.61,92
450133,4501.33,86
450207,4502.07,94
450284,4502.84,77
450360,4503.6,78
450439,4504.39,86
450518,4505.18,109
450598,4505.98,126
450678,4506.78,68
450759,4507.59,91
450840,4508.4,95
450921,4509.21,117
451002,4510.02,91
451083,4510.83,108
451162,4511.62,87
451243,4512.43,99
451323,4513.23,76
451402,4514.02,95
451483,4514.83,100
451566,4515.66,78
451649,4516.49,88
451737,4517.37,67
451826,4518.26,97
451914,4519.14,73
452004,4520.04,86
452091,4520.91,111
452178,4521.78,100
452265,4522.65,60
452350,4523.5,108
452434,4524.34,84
452517,4525.17,107
452596,4525.96,97
452672,4526.72,105
452747,4527.47,98
452894,4528.94,100
452967,4529.67,79
453039,4530.39,76
453113,4531.13,90
453188,4531.88,72
453262,4532.62,93
453340,4533.4,86
453419,4534.19,106
453495,4534.95,82
453567,4535.67,146
453595,4535.95,74
453640,4536.4,93
453671,4536.71,54
453712,4537.12,90
453786,4537.86,103
453858,4538.58,89
453931,4539.31,82
454004,4540.04,76
454077,4540.77,100
454107,4541.07,55
454151,4541.51,109
454225,4542.25,97
454299,4542.99,106
454375,4543.75,97
454452,4544.52,72
454530,4545.3,76
454609,4546.09,81
454689,4546.89,76
454771,4547.71,59
454851,4548.51,77
454932,4549.32,65
455015,4550.15,64
455096,4550.96,102
455178,4551.78,98
455260,4552.6,96
455339,4553.39,58
455420,4554.2,53
455501,4555.01,56
455581,4555.81,97
455663,4556.63,97
455745,4557.45,90
455829,4558.29,73
455913,4559.13,90
455997,4559.97,59
456081,4560.81,96
456165,4561.65,76
456247,4562.47,94
456327,4563.27,102
456405,4564.05,98
456483,4564.83,65
456559,4565.59,97
456633,4566.33,70
456708,4567.08,59
456783,4567.83,90
456857,4568.57,99
456932,4569.32,76
457006,4570.06,98
457079,4570.79,58
457157,4571.57,62
457232,4572.32,75
457307,4573.07,57
457385,4573.85,98
457463,4574.63,112
457539,4575.39,91
457615,4576.15,74
457692,4576.92,93
457768,4577.68,70
457798,4577.98,57
457843,4578.43,72
457920,4579.2,113
457994,4579.94,85
458024,4580.24,54
458069,4580.69,79
458142,4581.42,124
458214,4582.14,139
458243,4582.43,70
458284,4582.84,124
458313,4583.13,54
458353,4583.53,64
458424,4584.24,119
458455,4584.55,63
458494,4584.94,87
458564,4585.64,66
458635,4586.35,81
458665,4586.65,64
458707,4587.07,118
458779,4587.79,89
458852,4588.52,111
458924,4589.24,87
458998,4589.98,102
459071,4590.71,57
459146,4591.46,97
459221,4592.21,71
459299,4592.99,71
459377,4593.77,98
459453,4594.53,79
459531,4595.31,62
459609,4596.09,102
459685,4596.85,54
459763,4597.63,56
459843,4598.43,89
459922,4599.22,99
460007,4600.07,102
460093,4600.93,62
460178,4601.78,59
460261,4602.61,105
460343,4603.43,76
460423,4604.23,84
460502,4605.02,77
460579,4605.79,58
460655,4606.55,58
460731,4607.31,58
460806,4608.06,79
460880,4608.8,96
460955,4609.55,86
461028,4610.28,55
461102,4611.02,82
461175,4611.75,86
461249,4612.49,94
461323,4613.23,79
461397,4613.97,89
461471,4614.71,88
461547,4615.47,100
461622,4616.22,87
461696,4616.96,75
461772,4617.72,74
461850,4618.5,92
461926,4619.26,53
462004,4620.04,84
462085,4620.85,75
462170,4621.7,105
462200,4622.0,56
462249,4622.49,58
462330,4623.3,76
462412,4624.12,115
462443,4624.43,70
462489,4624.89,135
462565,4625.65,137
462640,4626.4,139
462669,4626.69,61
462713,4627.13,125
462744,4627.44,54
462785,4627.85,102
462857,4628.57,80
462928,4629.28,100
462959,4629.59,55
462999,4629.99,82
463069,4630.69,78
463100,4631.0,62
463139,4631.39,65
463208,4632.08,87
463278,4632.78,85
463347,4633.47,100
463417,4634.17,86
463489,4634.89,65
463560,4635.6,57
463633,4636.33,71
463709,4637.09,80
463785,4637.85,102
463861,4638.61,80
463940,4639.4,89
464020,4640.2,103
464098,4640.98,65
464179,4641.79,98
464257,4642.57,103
464334,4643.34,90
464411,4644.11,105
464486,4644.86,76
464560,4645.6,74
464634,4646.34,96
464780,4647.8,73
464852,4648.52,97
464925,4649.25,91
465072,4650.72,63
465145,4651.45,88
465219,4652.19,70
465294,4652.94,89
465370,4653.7,75
465446,4654.46,64
465521,4655.21,87
465596,4655.96,63
465671,4656.71,84
465746,4657.46,75
465821,4658.21,65
465899,4658.99,102
465975,4659.75,76
466052,4660.52,88
466129,4661.29,106
466205,4662.05,97
466282,4662.82,92
466360,4663.6,106
466434,4664.34,58
466510,4665.1,85
466587,4665.87,101
466616,4666.16,55
466692,4666.92,59
466738,4667.38,87
466817,4668.17,107
466895,4668.95,61
466926,4669.26,55
467052,4670.52,119
467127,4671.27,74
467157,4671.57,55
467205,4672.05,85
467284,4672.84,87
467315,4673.15,56
467360,4673.6,124
467436,4674.36,103
467510,4675.1,87
467542,4675.42,57
467581,4675.81,132
467611,4676.11,59
467650,4676.5,59
467680,4676.8,56
467720,4677.2,77
467790,4677.9,83
467818,4678.18,58
467860,4678.6,118
467930,4679.3,73
467960,4679.6,57
467999,4679.99,112
468069,4680.69,106
468139,4681.39,98
468209,4682.09,95
468279,4682.79,70
468351,4683.51,74
468422,4684.22,83
468494,4684.94,108
468567,4685.67,88
468642,4686.42,77
468718,4687.18,67
468794,4687.94,66
468871,4688.71,101
468948,4689.48,92
469027,4690.27,95
469102,4691.02,68
469181,4691.81,61
469258,4692.58,91
469336,4693.36,69
469414,4694.14,74
469496,4694.96,68
469578,4695.78,82
469747,4697.47,67
469831,4698.31,99
469913,4699.13,69
469995,4699.95,58
470076,4700.76,56
470156,4701.56,98
470234,4702.34,93
470310,4703.1,68
470385,4703.85,86
470458,4704.58,78
470530,4705.3,57
470604,4706.04,105
470677,4706.77,57
470754,4707.54,93
470828,4708.28,86
470905,4709.05,96
470983,4709.83,91
471061,4710.61,59
471139,4711.39,84
471219,4712.19,77
471297,4712.97,77
471374,4713.74,80
471451,4714.51,85
471531,4715.31,121
471562,4715.62,57
471605,4716.05,86
471681,4716.81,84
471756,4717.56,127
471785,4717.85,63
471829,4718.29,85
471902,4719.02,112
471974,4719.74,100
472044,4720.44,116
472114,4721.14,98
472144,4721.44,65
472183,4721.83,107
472213,4722.13,57
472252,4722.52,76
472322,4723.22,104
472391,4723.91,108
472460,4724.6,63
472531,4725.31,104
472560,4725.6,56
472676,4726.76,97
472827,4728.27,73
472905,4729.05,82
472987,4729.87,98
473068,4730.68,101
473149,4731.49,104
473233,4732.33,85
473318,4733.18,107
473401,4734.01,109
473487,4734.87,100
473570,4735.7,97
473651,4736.51,102
473733,4737.33,78
473818,4738.18,72
473902,4739.02,103
473982,4739.82,87
474062,4740.62,58
474141,4741.41,76
474220,4742.2,77
474298,4742.98,95
474373,4743.73,88
474449,4744.49,67
474526,4745.26,60
474602,4746.02,72
474678,4746.78,59
474757,4747.57,101
474836,4748.36,77
474917,4749.17,95
474995,4749.95,68
475075,4750.75,101
475154,4751.54,95
475183,4751.83,54
475231,4752.31,69
475309,4753.09,107
475388,4753.88,75
475464,4754.64,94
475542,4755.42,109
475621,4756.21,79
475697,4756.97,91
475723,4757.23,54
475774,4757.74,64
475854,4758.54,109
475931,4759.31,83
476010,4760.1,117
476088,4760.88,138
476118,4761.18,65
476163,4761.63,140
476237,4762.37,117
476267,4762.67,66
476309,4763.09,94
476338,4763.38,58
476380,4763.8,94
476410,4764.1,70
476451,4764.51,120
476480,4764.8,54
476521,4765.21,63
476591,4765.91,95
476620,4766.2,62
476660,4766.6,80
476690,4766.9,56
476730,4767.3,89
476799,4767.99,73
476869,4768.69,67
476940,4769.4,96
477010,4770.1,103
477081,4770.81,71
477153,4771.53,72
477224,4772.24,109
477296,4772.96,101
477369,4773.69,60
477442,4774.42,98
477515,4775.15,79
477590,4775.9,73
477741,4777.41,82
477816,4778.16,100
477894,4778.94,76
477971,4779.71,85
478049,4780.49,97
478128,4781.28,92
478207,4782.07,60
478285,4782.85,84
478365,4783.65,97
478444,4784.44,61
478604,4786.04,74
478682,4786.82,88
478762,4787.62,105
478840,4788.4,77
478918,4789.18,96
478996,4789.96,69
479073,4790.73,82
479150,4791.5,77
479226,4792.26,54
479302,4793.02,59
479377,4793.77,88
479452,4794.52,67
479528,4795.28,80
479604,4796.04,92
479677,4796.77,100
479751,4797.51,71
479828,4798.28,69
479904,4799.04,64
479979,4799.79,54
480058,4800.58,114
480138,4801.38,115
480217,4802.17,104
480296,4802.96,102
480377,4803.77,105
480455,4804.55,71
480534,4805.34,89
480613,4806.13,117
480689,4806.89,68
480767,4807.67,129
480845,4808.45,130
480876,4808.76,57
480920,4809.2,144
480949,4809.49,61
480994,4809.94,97
481068,4810.68,97
481141,4811.41,92
481214,4812.14,106
481244,4812.44,69
481286,4812.86,116
481358,4813.58,73
481431,4814.31,114
481462,4814.62,57
481502,4815.02,74
481574,4815.74,85
481646,4816.46,112
481717,4817.17,107
481789,4817.89,82
481862,4818.62,81
481934,4819.34,66
482009,4820.09,62
482083,4820.83,83
482158,4821.58,75
482233,4822.33,77
482311,4823.11,73
482392,4823.92,86
482472,4824.72,75
482551,4825.51,101
482632,4826.32,67
482715,4827.15,60
482799,4827.99,101
482880,4828.8,101
482964,4829.64,68
483051,4830.51,79
483135,4831.35,61
483218,4832.18,80
483302,4833.02,74
483384,4833.84,55
483467,4834.67,95
483550,4835.5,82
483628,4836.28,89
483707,4837.07,78
483784,4837.84,58
483862,4838.62,83
483938,4839.38,59
484013,4840.13,116
484089,4840.89,73
484165,4841.65,75
484241,4842.41,64
484317,4843.17,97
484396,4843.96,93
484475,4844.75,96
484554,4845.54,96
484632,4846.32,98
484713,4847.13,110
484791,4847.91,89
484868,4848.68,100
484947,4849.47,111
485023,4850.23,64
485103,4851.03,71
485187,4851.87,90
485265,4852.65,73
485293,4852.93,62
485349,4853.49,103
485436,4854.36,137
485464,4854.64,64
485515,4855.15,127
485545,4855.45,58
485593,4855.93,115
485669,4856.69,122
485742,4857.42,124
485814,4858.14,115
485844,4858.44,60
485885,4858.85,132
485955,4859.55,111
486025,4860.25,109
486094,4860.94,118
486163,4861.63,86
486232,4862.32,93
486301,4863.01,71
486442,4864.42,70
486514,4865.14,99
486587,4865.87,85
486661,4866.61,92
486734,4867.34,71
486811,4868.11,100
486887,4868.87,101
486962,4869.62,105
487040,4870.4,104
487117,4871.17,106
487192,4871.92,94
487269,4872.69,106
487345,4873.45,56
487422,4874.22,63
487497,4874.97,87
487576,4875.76,95
487656,4876.56,82
487736,4877.36,87
487815,4878.15,95
487892,4878.92,105
487969,4879.69,94
488046,4880.46,88
488123,4881.23,102
488197,4881.97,53
488273,4882.73,89
488348,4883.48,87
488423,4884.23,98
488496,4884.96,94
488570,4885.7,89
488645,4886.45,80
488720,4887.2,64
488795,4887.95,99
488870,4888.7,72
488948,4889.48,81
489025,4890.25,85
489101,4891.01,55
489179,4891.79,97
489257,4892.57,113
489334,4893.34,68
489412,4894.12,62
489495,4894.95,106
489574,4895.74,76
489603,4896.03,58
489655,4896.55,72
489736,4897.36,86
489765,4897.65,56
489813,4898.13,116
489893,4898.93,103
489922,4899.22,64
489968,4899.68,140
489998,4899.98,59
490042,4900.42,117
490073,4900.73,57
490113,4901.13,94
490143,4901.43,55
490184,4901.84,90
490253,4902.53,93
490322,4903.22,85
490391,4903.91,101
490422,4904.22,65
490460,4904.6,109
490486,4904.86,54
490529,4905.29,115
490598,4905.98,75
490629,4906.29,56
490668,4906.68,90
490739,4907.39,94
490810,4908.1,74
490881,4908.81,102
490953,4909.53,62
491026,4910.26,82
491099,4910.99,83
491172,4911.72,101
491246,4912.46,76
491321,4913.21,99
491394,4913.94,77
491469,4914.69,90
491543,4915.43,89
491617,4916.17,60
491691,4916.91,87
491766,4917.66,78
491843,4918.43,88
491922,4919.22,95
492000,4920.0,56
492079,4920.79,97
492159,4921.59,70
492237,4922.37,66
492319,4923.19,86
492400,4924.0,96
492482,4924.82,92
492562,4925.62,60
492640,4926.4,98
492718,4927.18,84
492797,4927.97,77
492874,4928.74,59
492949,4929.49,87
493024,4930.24,94
493101,4931.01,68
493179,4931.79,58
493259,4932.59,101
493337,4933.37,78
493416,4934.16,94
493494,4934.94,59
493571,4935.71,90
493651,4936.51,105
493732,4937.32,94
493810,4938.1,78
493895,4938.95,100
493974,4939.74,56
494004,4940.04,67
494150,4941.5,128
494230,4942.3,130
494309,4943.09,97
494386,4943.86,93
494460,4944.6,93
494490,4944.9,81
494532,4945.32,116
494561,4945.61,68
494602,4946.02,73
494673,4946.73,99
494702,4947.02,58
494743,4947.43,59
494772,4947.72,55
494880,4948.8,68
494950,4949.5,69
495019,4950.19,119
495048,4950.48,54
495088,4950.88,54
495158,4951.58,90
495229,4952.29,108
495300,4953.0,94
495373,4953.73,72
495446,4954.46,84
495520,4955.2,61
495595,4955.95,85
495671,4956.71,100
495749,4957.49,92
495830,4958.3,106
495909,4959.09,70
495988,4959.88,88
496069,4960.69,101
496147,4961.47,99
496228,4962.28,85
496310,4963.1,93
496394,4963.94,79
496477,4964.77,95
496557,4965.57,54
496636,4966.36,90
496716,4967.16,81
496793,4967.93,64
496872,4968.72,79
496952,4969.52,91
497110,4971.1,90
497187,4971.87,106
497265,4972.65,90
497343,4973.43,89
497419,4974.19,93
497495,4974.95,67
497574,4975.74,75
497653,4976.53,109
497731,4977.31,79
497808,4978.08,105
497887,4978.87,93
497963,4979.63,71
498040,4980.4,87
498120,4981.2,113
498201,4982.01,102
498280,4982.8,58
498360,4983.6,115
498435,4984.35,75
498512,4985.12,75
498591,4985.91,106
498620,4986.2,56
498666,4986.66,72
498746,4987.46,75
498776,4987.76,59
498820,4988.2,93
498894,4988.94,123
498924,4989.24,61
498967,4989.67,90
498996,4989.96,73
499005,4990.05,97
499038,4990.38,76
499074,4990.74,56
499108,4991.08,119
499139,4991.39,67
499177,4991.77,85
499207,4992.07,63
499245,4992.45,93
499314,4993.14,119
499383,4993.83,115
499451,4994.51,64
499520,4995.2,81
499590,4995.9,96
499659,4996.59,77
499729,4997.29,82
499798,4997.98,77
499939,4999.39,96
500009,5000.09,85
500081,5000.81,87
500153,5001.53,68
500224,5002.24,78
500296,5002.96,107
500369,5003.69,88
500515,5005.15,68
500588,5005.88,76
500661,5006.61,74
500733,5007.33,82
500876,5008.76,83
500945,5009.45,62
501014,5010.14,86
501082,5010.82,62
501152,5011.52,60
501221,5012.21,64
501290,5012.9,78
501318,5013.18,54
501359,5013.59,69
501427,5014.27,79
501495,5014.95,85
501562,5015.62,92
501763,5017.63,96
501830,5018.3,95
501895,5018.95,58
501962,5019.62,101
502028,5020.28,75
502159,5021.59,93
502290,5022.9,95
502319,5023.19,59
502356,5023.56,108
502422,5024.22,69
502490,5024.9,74
502519,5025.19,56
502560,5025.6,110
502632,5026.32,120
502707,5027.07,101
502789,5027.89,88
502872,5028.72,82
502955,5029.55,109
503042,5030.42,73
503130,5031.3,85
503214,5032.14,100
503299,5032.99,96
503385,5033.85,96
503467,5034.67,61
503548,5035.48,68
503627,5036.27,93
503705,5037.05,63
503782,5037.82,69
503857,5038.57,63
503933,5039.33,85
504159,5041.59,87
504234,5042.34,101
504310,5043.1,68
504386,5043.86,90
504536,5045.36,103
504614,5046.14,79
504690,5046.9,63
504767,5047.67,86
504846,5048.46,87
504922,5049.22,61
504952,5049.52,69
505004,5050.04,67
505088,5050.88,94
505117,5051.17,65
505166,5051.66,92
505243,5052.43,92
505319,5053.19,122
505348,5053.48,97
505392,5053.92,153
505422,5054.22,92
505447,5054.47,58
505462,5054.62,73
505491,5054.91,64
505533,5055.33,81
505562,5055.62,67
505604,5056.04,105
505635,5056.35,65
505674,5056.74,105
505704,5057.04,58
505743,5057.43,96
505774,5057.74,62
505793,5057.93,61
505812,5058.12,69
505841,5058.41,70
505880,5058.8,107
505949,5059.49,110
505978,5059.78,67
506019,5060.19,76
506088,5060.88,74
506142,5061.42,57
506156,5061.56,100
506226,5062.26,119
506295,5062.95,104
506364,5063.64,78
506433,5064.33,99
506503,5065.03,58
506572,5065.72,88
506642,5066.42,96
506713,5067.13,78
506784,5067.84,89
506855,5068.55,98
506927,5069.27,64
507001,5070.01,59
507076,5070.76,77
507150,5071.5,78
507226,5072.26,82
507302,5073.02,58
507381,5073.81,69
507544,5075.44,68
507626,5076.26,74
507708,5077.08,82
507792,5077.92,89
507873,5078.73,56
507955,5079.55,56
508039,5080.39,78
508122,5081.22,58
508283,5082.83,88
508363,5083.63,76
508444,5084.44,75
508526,5085.26,81
508606,5086.06,85
508687,5086.87,64
508768,5087.68,79
508846,5088.46,65
508928,5089.28,90
509016,5090.16,89
509045,5090.45,56
509184,5091.84,71
509267,5092.67,86
509298,5092.98,56
509347,5093.47,113
509426,5094.26,98
509502,5095.02,68
509576,5095.76,85
509650,5096.5,76
509723,5097.23,58
509753,5097.53,62
509796,5097.96,82
509825,5098.25,57
509942,5099.42,60
509972,5099.72,62
510016,5100.16,67
510236,5102.36,89
510310,5103.1,58
510461,5104.61,59
510537,5105.37,71
510691,5106.91,81
510768,5107.68,64
510849,5108.49,65
510931,5109.31,81
511012,5110.12,74
511096,5110.96,56
511181,5111.81,86
511264,5112.64,70
511348,5113.48,78
511433,5114.33,78
511517,5115.17,81
511600,5116.0,78
511684,5116.84,68
511769,5117.69,71
511851,5118.51,56
511933,5119.33,72
512013,5120.13,63
512093,5120.93,60
512172,5121.72,70
512250,5122.5,86
512327,5123.27,80
512403,5124.03,66
512478,5124.78,71
512553,5125.53,57
512630,5126.3,84
512707,5127.07,59
512786,5127.86,86
512862,5128.62,60
512938,5129.38,86
513014,5130.14,96
513164,5131.64,73
513242,5132.42,86
513319,5133.19,62
513401,5134.01,105
513478,5134.78,70
513560,5135.6,108
513643,5136.43,88
513673,5136.73,61
513720,5137.2,134
513796,5137.96,110
513871,5138.71,71
513902,5139.02,62
513945,5139.45,102
514017,5140.17,63
514089,5140.89,78
514160,5141.6,98
514191,5141.91,75
514438,5144.38,66
514507,5145.07,66
514575,5145.75,63
514644,5146.44,88
514713,5147.13,59
514784,5147.84,63
514858,5148.58,87
515106,5151.06,74
515193,5151.93,57
515283,5152.83,76
515369,5153.69,64
515452,5154.52,65
515535,5155.35,73
515615,5156.15,60
515694,5156.94,84
515772,5157.72,56
515852,5158.52,60
515933,5159.33,67
516013,5160.13,57
516251,5162.51,57
516328,5163.28,64
516474,5164.74,59
516617,5166.17,76
516690,5166.9,57
516845,5168.45,71
516925,5169.25,61
517009,5170.09,85
517091,5170.91,88
517171,5171.71,68
517254,5172.54,80
517336,5173.36,96
517418,5174.18,94
517499,5174.99,75
517580,5175.8,93
517660,5176.6,75
517737,5177.37,68
517817,5178.17,81
517893,5178.93,61
517970,5179.7,75
518050,5180.5,104
518125,5181.25,99
518201,5182.01,116
518275,5182.75,117
518306,5183.06,74
518348,5183.48,126
518377,5183.77,62
518419,5184.19,69
518491,5184.91,77
518561,5185.61,112
518591,5185.91,56
518631,5186.31,67
518702,5187.02,70
518732,5187.32,62
518772,5187.72,83
518843,5188.43,61
518915,5189.15,77
518988,5189.88,93
519138,5191.38,77
519214,5192.14,66
519291,5192.91,60
519447,5194.47,75
519525,5195.25,84
519605,5196.05,79
519683,5196.83,81
519763,5197.63,81
520011,5200.11,81
520097,5200.97,80
520182,5201.82,67
520264,5202.64,58
520350,5203.5,83
520436,5204.36,66
520522,5205.22,82
520606,5206.06,84
520690,5206.9,82
520772,5207.72,88
520853,5208.53,75
520934,5209.34,81
521015,5210.15,73
521175,5211.75,81
521253,5212.53,85
521332,5213.32,82
521411,5214.11,76
521489,5214.89,63
521648,5216.48,92
521728,5217.28,88
521887,5218.87,64
521969,5219.69,80
522050,5220.5,75
522210,5222.1,85
522294,5222.94,93
522376,5223.76,68
522459,5224.59,81
522619,5226.19,62
522702,5227.02,110
522732,5227.32,64
522779,5227.79,108
522810,5228.1,66
522855,5228.55,73
522929,5229.29,117
522960,5229.6,67
523001,5230.01,73
523030,5230.3,56
523142,5231.42,82
523171,5231.71,65
523213,5232.13,80
523284,5232.84,65
523355,5233.55,58
523497,5234.97,95
523527,5235.27,56
523714,5237.14,81
523787,5237.87,92
523934,5239.34,69
524007,5240.07,65
524083,5240.83,61
524236,5242.36,56
524312,5243.12,60
524391,5243.91,66
524470,5244.7,86
524549,5245.49,83
524633,5246.33,73
524716,5247.16,93
524796,5247.96,65
524879,5248.79,70
524959,5249.59,67
525037,5250.37,64
525115,5251.15,79
525191,5251.91,67
525266,5252.66,65
525341,5253.41,71
525416,5254.16,58
525493,5254.93,80
525570,5255.7,62
525648,5256.48,83
525728,5257.28,71
525809,5258.09,76
525887,5258.87,68
525969,5259.69,73
526049,5260.49,90
526127,5261.27,56
526206,5262.06,79
526283,5262.83,81
526359,5263.59,80
526436,5264.36,75
526513,5265.13,81
526590,5265.9,62
526667,5266.67,77
526746,5267.46,69
526824,5268.24,58
526899,5268.99,65
526978,5269.78,82
527061,5270.61,78
527139,5271.39,111
527220,5272.2,117
527252,5272.52,64
527296,5272.96,106
527372,5273.72,92
527446,5274.46,87
527478,5274.78,65
527520,5275.2,96
527551,5275.51,73
527593,5275.93,86
527666,5276.66,75
527696,5276.96,59
527738,5277.38,83
527767,5277.67,76
527880,5278.8,79
527951,5279.51,88
528021,5280.21,58
528091,5280.91,95
528161,5281.61,99
528232,5282.32,77
528306,5283.06,72
528383,5283.83,78
528461,5284.61,87
528546,5285.46,79
528714,5287.14,102
528798,5287.98,82
528883,5288.83,58
529052,5290.52,57
529139,5291.39,81
529224,5292.24,67
529309,5293.09,63
529397,5293.97,70
529486,5294.86,79
529573,5295.73,62
529657,5296.57,92
529741,5297.41,59
529826,5298.26,68
529907,5299.07,88
529989,5299.89,88
530070,5300.7,83
530149,5301.49,80
530229,5302.29,89
530308,5303.08,66
530386,5303.86,77
530464,5304.64,65
530543,5305.43,67
530622,5306.22,63
530701,5307.01,86
530779,5307.79,73
530859,5308.59,85
530938,5309.38,80
531017,5310.17,60
531097,5310.97,71
531178,5311.78,93
531205,5312.05,56
531255,5312.55,118
531332,5313.32,84
531406,5314.06,92
531437,5314.37,63
531480,5314.8,117
531553,5315.53,87
531627,5316.27,84
531656,5316.56,58
531699,5316.99,114
531771,5317.71,72
531843,5318.43,78
531875,5318.75,56
531915,5319.15,92
531988,5319.88,64
532061,5320.61,100
532091,5320.91,58
532134,5321.34,87
532282,5322.82,76
532356,5323.56,61
532435,5324.35,63
532514,5325.14,60
532595,5325.95,82
532676,5326.76,62
532761,5327.61,73
532844,5328.44,75
532928,5329.28,68
533011,5330.11,84
533091,5330.91,69
533172,5331.72,89
533249,5332.49,74
533325,5333.25,66
533402,5334.02,66
533478,5334.78,54
533555,5335.55,85
533630,5336.3,65
533709,5337.09,80
533872,5338.72,69
533950,5339.5,63
534032,5340.32,90
534115,5341.15,69
534202,5342.02,73
534285,5342.85,79
534369,5343.69,96
534451,5344.51,73
534534,5345.34,58
534615,5346.15,84
534698,5346.98,75
534777,5347.77,68
534854,5348.54,76
534934,5349.34,86
535015,5350.15,71
535096,5350.96,66
535183,5351.83,108
535265,5352.65,123
535295,5352.95,55
535345,5353.45,124
535423,5354.23,121
535454,5354.54,71
535498,5354.98,98
535572,5355.72,65
535602,5356.02,71
535645,5356.45,69
535789,5357.89,112
535860,5358.6,85
536003,5360.03,95
536075,5360.75,76
536147,5361.47,58
536220,5362.2,84
536294,5362.94,66
536368,5363.68,54
536442,5364.42,66
536518,5365.18,84
536669,5366.69,54
536744,5367.44,80
536899,5368.99,73
536980,5369.8,89
537060,5370.6,59
537149,5371.49,58
537237,5372.37,96
537323,5373.23,63
537412,5374.12,73
537495,5374.95,70
537582,5375.82,63
537666,5376.66,56
537750,5377.5,63
537833,5378.33,61
537917,5379.17,77
537997,5379.97,74
538076,5380.76,86
538154,5381.54,72
538231,5382.31,84
538307,5383.07,58
538385,5383.85,61
538463,5384.63,74
538538,5385.38,81
538616,5386.16,70
538694,5386.94,62
538774,5387.74,77
538853,5388.53,62
538938,5389.38,95
539022,5390.22,100
539102,5391.02,85
539183,5391.83,69
539267,5392.67,100
539347,5393.47,92
539426,5394.26,73
539506,5395.06,77
539584,5395.84,73
539662,5396.62,72
539690,5396.9,56
539743,5397.43,104
539827,5398.27,103
539859,5398.59,56
539904,5399.04,89
539981,5399.81,120
540057,5400.57,91
540088,5400.88,56
540130,5401.3,124
540202,5402.02,58
540233,5402.33,68
540275,5402.75,108
540347,5403.47,61
540419,5404.19,84
540450,5404.5,68
540493,5404.93,99
540520,5405.2,56
540565,5405.65,94
540712,5407.12,86
540786,5407.86,92
540933,5409.33,76
541007,5410.07,70
541083,5410.83,55
541236,5412.36,65
541314,5413.14,78
541395,5413.95,67
541478,5414.78,89
541561,5415.61,60
541647,5416.47,66
541733,5417.33,92
541816,5418.16,85
541900,5419.0,60
541985,5419.85,54
542067,5420.67,80
542147,5421.47,77
542227,5422.27,67
542308,5423.08,58
542387,5423.87,57
542466,5424.66,66
542544,5425.44,75
542620,5426.2,64
542699,5426.99,71
542777,5427.77,71
542856,5428.56,69
542936,5429.36,90
543016,5430.16,78
543098,5430.98,75
543179,5431.79,73
543259,5432.59,82
543340,5433.4,73
543424,5434.24,65
543507,5435.07,88
543590,5435.9,66
543673,5436.73,91
543755,5437.55,82
543834,5438.34,79
543914,5439.14,82
543994,5439.94,69
544072,5440.72,66
544152,5441.52,69
544232,5442.32,84
544262,5442.62,55
544311,5443.11,55
544394,5443.94,112
544424,5444.24,54
544471,5444.71,73
544556,5445.56,119
544587,5445.87,57
544634,5446.34,141
544665,5446.65,63
544711,5447.11,115
544718,5447.18,54
544742,5447.42,80
544786,5447.86,146
544817,5448.17,67
544861,5448.61,111
544892,5448.92,71
544935,5449.35,134
544966,5449.66,59
545008,5450.08,67
545081,5450.81,140
545111,5451.11,58
545154,5451.54,68
545227,5452.27,106
545300,5453.0,81
545373,5453.73,80
545445,5454.45,89
545517,5455.17,60
545589,5455.89,66
545660,5456.6,109
545731,5457.31,63
545875,5458.75,83
545947,5459.47,84
546166,5461.66,88
546240,5462.4,90
546314,5463.14,56
546464,5464.64,60
546538,5465.38,69
546614,5466.14,63
546689,5466.89,65
546765,5467.65,70
546843,5468.43,62
546921,5469.21,54
547000,5470.0,77
547078,5470.78,80
547157,5471.57,81
547235,5472.35,78
547312,5473.12,59
547389,5473.89,62
547466,5474.66,69
547542,5475.42,68
547618,5476.18,78
547693,5476.93,74
547768,5477.68,75
547842,5478.42,64
547916,5479.16,60
547991,5479.91,65
548139,5481.39,73
548214,5482.14,83
548289,5482.89,80
548363,5483.63,60
548516,5485.16,64
548594,5485.94,74
548670,5486.7,54
548749,5487.49,59
548830,5488.3,93
548907,5489.07,60
548937,5489.37,59
548986,5489.86,64
549066,5490.66,87
549144,5491.44,61
549175,5491.75,59
549221,5492.21,76
549303,5493.03,76
549382,5493.82,111
549412,5494.12,57
549461,5494.61,123
549537,5495.37,93
549568,5495.68,66
549612,5496.12,97
549684,5496.84,107
549756,5497.56,64
549786,5497.86,65
549827,5498.27,76
549970,5499.7,100
550001,5500.01,65
550040,5500.4,72
550111,5501.11,66
550182,5501.82,72
550211,5502.11,59
550255,5502.55,102
550401,5504.01,77
550475,5504.75,93
550550,5505.5,74
550626,5506.26,54
550702,5507.02,77
550778,5507.78,72
550855,5508.55,58
550932,5509.32,55
551011,5510.11,61
551088,5510.88,77
551170,5511.7,70
551250,5512.5,71
551329,5513.29,75
551409,5514.09,82
551491,5514.91,84
551573,5515.73,82
551652,5516.52,61
551731,5517.31,83
551809,5518.09,81
551887,5518.87,77
551964,5519.64,75
552039,5520.39,66
552116,5521.16,60
552192,5521.92,70
552269,5522.69,63
552345,5523.45,65
552422,5524.22,76
552499,5524.99,73
552574,5525.74,94
552652,5526.52,84
552729,5527.29,83
552806,5528.06,72
552883,5528.83,86
552963,5529.63,68
553046,5530.46,67
553126,5531.26,72
553206,5532.06,79
553287,5532.87,80
553362,5533.62,90
553438,5534.38,86
553514,5535.14,106
553543,5535.43,63
553587,5535.87,91
553661,5536.61,68
553734,5537.34,80
553763,5537.63,62
553808,5538.08,91
553838,5538.38,55
553881,5538.81,55
553955,5539.55,71
554028,5540.28,116
554101,5541.01,57
554175,5541.75,68
554248,5542.48,74
554395,5543.95,62
554469,5544.69,79
554544,5545.44,69
554619,5546.19,67
554693,5546.93,84
554769,5547.69,65
554846,5548.46,66
554925,5549.25,63
555004,5550.04,71
555086,5550.86,72
555167,5551.67,71
555247,5552.47,86
555327,5553.27,62
555408,5554.08,68
555488,5554.88,65
555567,5555.67,71
555646,5556.46,63
555727,5557.27,74
555809,5558.09,72
555890,5558.9,82
555969,5559.69,55
556048,5560.48,63
556127,5561.27,75
556205,5562.05,78
556283,5562.83,69
556361,5563.61,58
556438,5564.38,79
556515,5565.15,70
556593,5565.93,66
556670,5566.7,54
556747,5567.47,64
556828,5568.28,86
556909,5569.09,77
556989,5569.89,80
557072,5570.72,71
557153,5571.53,66
557234,5572.34,69
557317,5573.17,71
557399,5573.99,92
557479,5574.79,70
557563,5575.63,109
557645,5576.45,72
557730,5577.3,88
557818,5578.18,102
557901,5579.01,54
557987,5579.87,112
558068,5580.68,65
558098,5580.98,68
558152,5581.52,114
558233,5582.33,98
558311,5583.11,143
558340,5583.4,76
558388,5583.88,119
558417,5584.17,64
558463,5584.63,57
558537,5585.37,91
558611,5586.11,108
558683,5586.83,90
558715,5587.15,55
558753,5587.53,95
558823,5588.23,67
558893,5588.93,81
558963,5589.63,82
559104,5591.04,70
559176,5591.76,89
559394,5593.94,78
559469,5594.69,88
559619,5596.19,59
559695,5596.95,89
559770,5597.7,63
559847,5598.47,72
559925,5599.25,78
560002,5600.02,61
560082,5600.82,61
560162,5601.62,72
560243,5602.43,89
560322,5603.22,78
560402,5604.02,67
560481,5604.81,84
560635,5606.35,87
560710,5607.1,82
560784,5607.84,70
560857,5608.57,58
560931,5609.31,76
561005,5610.05,80
561079,5610.79,68
561155,5611.55,83
561229,5612.29,77
561305,5613.05,69
561380,5613.8,61
561455,5614.55,87
561531,5615.31,70
561608,5616.08,67
561686,5616.86,92
561763,5617.63,80
561843,5618.43,74
561924,5619.24,63
562004,5620.04,66
562087,5620.87,72
562169,5621.69,67
562250,5622.5,79
562331,5623.31,72
562417,5624.17,90
562499,5624.99,74
562579,5625.79,58
562662,5626.62,84
562741,5627.41,77
562770,5627.7,57
562822,5628.22,86
562906,5629.06,88
562937,5629.37,56
562985,5629.85,131
563063,5630.63,105
563093,5630.93,91
563101,5631.01,73
563113,5631.13,56
563138,5631.38,88
563170,5631.7,83
563211,5632.11,70
563283,5632.83,111
563315,5633.15,54
563354,5633.54,81
563385,5633.85,58
